"Time (s)","X (rad/s)","Y (rad/s)","Z (rad/s)"
1.581383334E-2,-5.230913162E-1,-5.558764562E-2,8.233290911E-1
2.583383333E-2,-5.451145768E-1,-2.632348984E-2,8.080747128E-1
3.585283333E-2,-5.291779637E-1,5.207518116E-2,7.511251569E-1
4.587283333E-2,-4.553191960E-1,1.609899402E-1,6.401464343E-1
5.589283333E-2,-3.005429208E-1,1.734444797E-1,4.542625844E-1
6.591283334E-2,-6.351963431E-2,2.261200547E-1,2.353689522E-1
7.593283333E-2,2.025613040E-1,2.835226357E-1,2.257514745E-1
8.595283333E-2,4.683695436E-1,2.572867870E-1,1.376177818E-1
9.597283333E-2,5.256165862E-1,1.536802351E-1,-1.039341167E-1
1.059918333E-1,5.866136551E-1,3.055662513E-1,-3.405354619E-1
1.160118333E-1,7.588298917E-1,4.436903000E-1,-3.260396123E-1
1.260318333E-1,9.402131438E-1,6.061649919E-1,-3.858069703E-2
1.360518333E-1,1.039165020E0,9.225988388E-1,2.598565817E-1
1.460718333E-1,9.808936715E-1,1.223988056E0,4.439104795E-1
1.560918333E-1,6.109632850E-1,1.362123251E0,4.428710341E-1
1.661118333E-1,-1.414707154E-1,1.485574603E0,1.681948304E-1
1.761308333E-1,-6.749375463E-1,1.605471730E0,-4.711031020E-1
1.861508333E-1,-1.613839269E0,2.709247828E0,-4.079611599E-1
1.961708333E-1,-2.245587349E0,2.279079437E0,4.552403837E-2
2.061908333E-1,-2.533404112E0,1.731876016E0,-5.846580863E-2
2.162108333E-1,-2.859596252E0,1.616165638E0,-2.839149237E-1
2.262308333E-1,-3.388254642E0,1.397925854E0,-5.643615872E-2
2.362508333E-1,-3.846200705E0,7.542499304E-1,5.628007054E-1
2.462698333E-1,-4.184834003E0,2.616820671E-2,9.398684502E-1
2.562898333E-1,-4.493086815E0,-6.601917744E-1,1.079500914E0
2.663098333E-1,-4.761094093E0,-1.207442880E0,1.149726510E0
2.763298333E-1,-4.487333298E0,2.137502432E0,1.586667418E0
2.863498333E-1,-2.855706215E0,2.074646235E0,1.762534261E0
2.963698333E-1,-8.629261851E-1,1.109266758E0,1.865550637E0
3.063888333E-1,1.009660840E0,1.022369266E0,1.678120375E0
3.164088333E-1,2.224785566E0,-5.760031752E-3,1.412342072E0
3.264288333E-1,2.214094877E0,9.489960074E-1,9.611284137E-1
3.364488333E-1,1.426141620E0,8.352020383E-1,6.808839440E-1
3.464688333E-1,5.431654453E-1,1.007385015E0,6.647139788E-1
3.564888333E-1,-4.037858844E-1,1.106412768E0,7.998659015E-1
3.665088333E-1,-1.135685802E0,9.958103895E-1,9.609735012E-1
3.765278333E-1,-1.590189338E0,7.239466310E-1,1.217479825E0
3.865478333E-1,-1.759330511E0,4.565495849E-1,1.509535313E0
3.965678333E-1,-1.737271905E0,3.909729719E-1,1.674725294E0
4.065878333E-1,-1.607561707E0,9.825839400E-1,1.684434175E0
4.166078333E-1,-1.193924785E0,2.178699970E0,1.531895280E0
4.266278333E-1,-4.637983441E-1,2.927575827E0,1.252467632E0
4.366468333E-1,3.982927203E-1,3.435850143E0,8.342052102E-1
4.466668333E-1,1.432394505E0,4.331710815E0,6.100845337E-1
4.566868333E-1,2.292819500E0,4.563401222E0,4.941691160E-1
4.667068333E-1,2.840144634E0,4.537670612E0,3.262683153E-1
4.767268333E-1,3.163965464E0,4.683475494E0,1.190069839E-1
4.867468333E-1,2.758578777E0,3.719797134E0,-3.326669931E-1
4.967668333E-1,2.547359467E0,4.461940289E0,-7.753562927E-1
5.067858333E-1,2.432427406E0,4.882765770E0,-1.392089844E0
5.168058333E-1,2.218460560E0,4.725999355E0,-1.942838430E0
5.268258333E-1,2.082881689E0,4.893889427E0,-2.443853617E0
5.368447500E-1,2.026591778E0,5.210676193E0,-2.825588703E0
5.468647500E-1,2.050180435E0,5.203258991E0,-2.993186951E0
5.568847500E-1,2.091002703E0,4.985102177E0,-2.934964895E0
5.669037500E-1,2.035617113E0,4.835440636E0,-2.751339674E0
5.769237500E-1,1.820690513E0,4.644371033E0,-2.610933781E0
5.869437500E-1,1.538892746E0,4.320513248E0,-2.571370125E0
5.969637500E-1,1.257616758E0,3.945651531E0,-2.581625700E0
6.069837500E-1,1.037536383E0,3.607954741E0,-2.631659985E0
6.170037500E-1,8.856645823E-1,3.351146936E0,-2.716461897E0
6.270237500E-1,8.178704977E-1,3.070784092E0,-2.820292711E0
6.370427500E-1,8.079432845E-1,2.848896742E0,-2.909040213E0
6.470627500E-1,8.369587660E-1,2.625406504E0,-2.891062260E0
6.570827500E-1,9.770253301E-1,2.341414928E0,-2.802655697E0
6.671027500E-1,1.174739480E0,2.220128298E0,-2.651073694E0
6.771227500E-1,1.406123161E0,2.350620031E0,-2.436271667E0
6.871427500E-1,1.681524515E0,2.664629221E0,-2.245382309E0
6.971627500E-1,2.015607119E0,3.097146511E0,-2.140146017E0
7.071817500E-1,2.432829142E0,3.528896570E0,-2.070584059E0
7.172017500E-1,2.897233963E0,3.858696461E0,-1.947434068E0
7.272217500E-1,3.351214409E0,3.858618498E0,-1.690676332E0
7.372417500E-1,3.727691174E0,3.417123318E0,-1.370827436E0
7.472617500E-1,3.981784344E0,2.721732855E0,-1.116955042E0
7.572817500E-1,4.108636379E0,2.026200533E0,-9.109083414E-1
7.673007500E-1,4.118246555E0,1.558094025E0,-5.930920839E-1
7.773207500E-1,3.693036079E0,1.466736913E0,-8.099469543E-2
7.873407500E-1,2.973428965E0,1.469169855E0,4.722906351E-1
7.973607500E-1,2.314377069E0,1.400193453E0,7.601376176E-1
8.073807500E-1,1.859415889E0,1.223359704E0,8.724015355E-1
8.174007500E-1,1.668377042E0,9.354932308E-1,7.432203889E-1
8.274197500E-1,1.642174363E0,8.645489812E-1,7.853460312E-1
8.374397500E-1,1.842822790E0,1.155840516E0,6.424405575E-1
8.474597500E-1,2.142986059E0,1.780074716E0,4.748148322E-1
8.574797500E-1,2.547258854E0,2.624154329E0,2.851852477E-1
8.674997500E-1,3.002315998E0,3.361687183E0,1.851560473E-1
8.775197500E-1,3.326333523E0,3.917891026E0,3.444860578E-1
8.875397500E-1,3.398691893E0,4.197052956E0,6.024038792E-1
8.975587500E-1,3.200540543E0,4.263394356E0,8.343684077E-1
9.075787500E-1,2.741878748E0,4.288241386E0,8.907791376E-1
9.175987500E-1,2.247276068E0,4.123157501E0,8.679827452E-1
9.276187500E-1,1.717089057E0,3.513253450E0,7.850856781E-1
9.376387500E-1,3.258907497E-1,2.207371235E0,5.073749423E-1
9.476587500E-1,-1.231004596E0,3.309984803E-1,4.662508965E-1
9.576787500E-1,-1.732169986E0,-1.071903706E0,7.120462656E-1
9.676977500E-1,-9.802550077E-1,-9.001165032E-1,6.359006763E-1
9.777177500E-1,-2.514809966E-1,-1.722751260E-1,6.949565411E-1
9.877377500E-1,-8.394598216E-2,1.501027942E-1,6.976673007E-1
9.977577500E-1,-1.040954590E-1,3.170550466E-1,7.403127551E-1
1.007777750E0,2.485591173E-1,8.290053606E-1,8.888790011E-1
1.017797750E0,8.217976093E-1,1.508902669E0,1.241937399E0
1.027817750E0,1.391907215E0,2.034481525E0,1.480528951E0
1.037836750E0,1.866390347E0,2.070334196E0,1.286381483E0
1.047856750E0,2.302373648E0,1.793470621E0,8.494748473E-1
1.057876750E0,2.433104277E0,1.249073863E0,2.824644446E-1
1.067896750E0,1.977763772E0,3.070991635E-1,-2.825316787E-1
1.077916750E0,1.408556581E0,-5.319912434E-1,-7.495156527E-1
1.087936750E0,1.054387808E0,-9.965618253E-1,-1.211528063E0
1.097955750E0,8.331086636E-1,-1.069579363E0,-1.820681095E0
1.107975750E0,5.644475222E-1,-5.215837955E-1,-2.556030989E0
1.117995750E0,-2.335072681E-2,2.742533684E-1,-3.226673841E0
1.128015750E0,-3.583591282E-1,7.162607908E-1,-3.293996572E0
1.138035750E0,-6.884281039E-1,6.118388176E-1,-2.955067396E0
1.148055750E0,-1.287327409E0,5.088318586E-1,-2.766975880E0
1.158075750E0,-2.060213089E0,2.497350276E-1,-2.666049957E0
1.168094750E0,-2.711121082E0,-5.035303161E-2,-2.404909372E0
1.178114750E0,-3.019429684E0,-6.986839175E-1,-2.087137222E0
1.188134750E0,-3.158639908E0,-1.697487712E0,-2.050327778E0
1.198154750E0,-3.164652824E0,-2.703227043E0,-1.983210802E0
1.208174750E0,-2.926931381E0,-2.962203264E0,-1.864514947E0
1.218194750E0,-2.453961372E0,-2.054461241E0,-1.669519663E0
1.228214750E0,-1.894245863E0,-6.448085308E-1,-1.322466612E0
1.238233750E0,-1.424542546E0,5.077345967E-1,-9.370888472E-1
1.248253750E0,-1.038059354E0,1.394866705E0,-6.732095480E-1
1.258273750E0,-7.738263607E-1,2.155250788E0,-4.519711435E-1
1.268293750E0,-6.194170117E-1,2.861170053E0,-1.977005899E-1
1.278313750E0,-6.087704897E-1,3.047232866E0,2.544007823E-2
1.288333750E0,-7.127414942E-1,3.397019625E0,7.697483152E-2
1.298352750E0,-9.993937612E-1,3.669341087E0,-7.934180647E-2
1.308372750E0,-1.444230080E0,3.704687595E0,-3.024965227E-1
1.318392750E0,-1.586644769E0,1.966297626E0,-4.453383684E-1
1.328412750E0,-8.227770329E-1,-2.704587698E0,-1.697896123E-1
1.338432750E0,-2.812567651E-1,-4.365462303E0,1.735677421E-1
1.348452750E0,-2.468372285E-1,-3.645118952E0,4.735706151E-1
1.358472750E0,-3.691700697E-1,-1.511909842E0,6.215411425E-1
1.368491750E0,-3.783340156E-1,6.840478182E-1,4.552276433E-1
1.378511750E0,-2.259340882E-1,2.521060228E0,1.260095388E-1
1.388531750E0,3.462370113E-2,4.037852764E0,-1.934373677E-1
1.398551750E0,4.133883417E-1,5.305365562E0,-5.543113947E-1
1.408571750E0,8.716711402E-1,5.853698254E0,-9.618927836E-1
1.418591750E0,1.302487493E0,4.926723957E0,-1.276867270E0
1.428611750E0,1.631802678E0,2.850527763E0,-1.508359671E0
1.438630750E0,1.724994659E0,9.610506296E-1,-1.880384684E0
1.448650750E0,1.723564744E0,-6.159551144E-1,-2.632744551E0
1.458670750E0,1.759002090E0,-1.817334056E0,-3.624774456E0
1.468690750E0,1.897834420E0,-2.155565500E0,-4.631025791E0
1.478710750E0,2.117384195E0,-1.652971148E0,-5.414805889E0
1.488730750E0,2.412461758E0,-8.306012750E-1,-5.807876587E0
1.498750750E0,2.721464157E0,-1.522696614E-1,-5.787129879E0
1.508769750E0,2.938259840E0,1.395476758E-1,-5.526713848E0
1.518789750E0,2.945808887E0,1.357033998E-1,-5.217994690E0
1.528809750E0,2.868223190E0,2.623612583E-1,-4.789448261E0
1.538830375E0,2.607820034E0,5.676532388E-1,-4.134633541E0
1.548850375E0,2.142959118E0,5.922148228E-1,-3.094508171E0
1.558870375E0,1.499837995E0,2.158460207E-2,-1.804851294E0
1.568890375E0,7.636102438E-1,-1.042830110E0,-4.071373940E-1
1.578909375E0,-3.639534861E-2,-1.884366155E0,8.964173198E-1
1.588929375E0,-7.973750830E-1,-1.869220614E0,1.837505102E0
1.598949375E0,-1.469689250E0,-1.028085470E0,2.417197227E0
1.608969375E0,-2.076781988E0,2.007560134E-1,2.849353075E0
1.618989375E0,-2.513840914E0,1.399091125E0,3.093512058E0
1.629009375E0,-2.703370094E0,2.790434837E0,2.900110960E0
1.639029375E0,-2.522922039E0,3.398191929E0,2.214375496E0
1.649048375E0,-2.010410786E0,2.868704319E0,1.399713993E0
1.659068375E0,-1.340083003E0,1.660163999E0,6.197172403E-1
1.669088375E0,-6.708790064E-1,1.008390784E0,-2.134367675E-1
1.679108375E0,-5.168820918E-2,1.220080853E0,-8.035820723E-1
1.689128375E0,5.945832729E-1,1.361946225E0,-1.284755826E0
1.699148375E0,1.135349035E0,1.359366179E0,-1.834939003E0
1.709167375E0,1.489164948E0,1.272305131E0,-2.168174028E0
1.719187375E0,1.700221777E0,1.142580390E0,-2.315853596E0
1.729207375E0,1.774437904E0,1.125893474E0,-2.425358534E0
1.739227375E0,1.764760733E0,1.144508958E0,-2.584350824E0
1.749247375E0,1.742579103E0,1.019463420E0,-2.696584940E0
1.759267375E0,1.718715072E0,5.593593717E-1,-2.649695873E0
1.769287375E0,1.667681575E0,1.452797353E-1,-2.395090580E0
1.779306375E0,1.612154961E0,-3.180972338E-1,-2.179060459E0
1.789326375E0,1.573036790E0,-1.343001842E0,-2.137134075E0
1.799346375E0,1.511445642E0,-2.447299957E0,-2.156900883E0
1.809366375E0,1.438935995E0,-3.171903133E0,-2.143989325E0
1.819386375E0,1.356504679E0,-3.306729317E0,-2.005206823E0
1.829406375E0,1.283937097E0,-3.122982502E0,-1.797753930E0
1.839426375E0,1.241531610E0,-2.842701912E0,-1.658851981E0
1.849446375E0,1.247558236E0,-2.321848154E0,-1.637433887E0
1.859465375E0,2.271687508E0,7.858991623E-1,-2.721093893E0
1.869485375E0,3.368792534E0,3.653100014E0,-4.282361031E0
1.879505375E0,3.950865984E0,4.898900509E0,-5.713425159E0
1.889525375E0,3.758414268E0,4.675155640E0,-6.655417442E0
1.899545375E0,3.057969093E0,3.799575806E0,-7.397074699E0
1.909565375E0,1.931576371E0,2.034657001E0,-7.982873440E0
1.919584375E0,8.274044394E-1,1.980549693E-1,-8.086258888E0
1.929604375E0,-9.116215259E-2,-1.288588643E0,-7.734854698E0
1.939624375E0,-9.322766066E-1,-2.587509155E0,-7.072288990E0
1.949644375E0,-1.657179475E0,-3.524296761E0,-6.229235649E0
1.959664375E0,-2.211031199E0,-4.060027122E0,-5.201178074E0
1.969684375E0,-2.632951260E0,-4.447874546E0,-3.653928995E0
1.979704375E0,-2.770555973E0,-4.588342667E0,-1.690100193E0
1.989724375E0,-2.494530439E0,-4.498898983E0,3.600835502E-1
1.999743375E0,-1.057156444E0,-2.604627371E0,1.910384893E0
2.009763375E0,5.474355817E-1,-2.503977120E-1,2.309926510E0
2.019783375E0,1.337028503E0,7.464130521E-1,2.303131580E0
2.029803375E0,1.567424178E0,8.226391077E-1,2.258141518E0
2.039823375E0,1.615203977E0,6.136400700E-1,2.134282351E0
2.049843375E0,1.620659947E0,4.032507241E-1,1.894087315E0
2.059862375E0,1.607608080E0,2.305170149E-1,1.562585354E0
2.069882375E0,1.626348734E0,1.453054696E-1,1.155303955E0
2.079902375E0,1.685824871E0,1.492877007E-1,7.163617611E-1
2.089922375E0,1.761463523E0,2.389547229E-1,3.003238738E-1
2.099942375E0,1.813841224E0,3.701098263E-1,-5.081764609E-2
2.109962375E0,1.832054853E0,5.320187211E-1,-2.826611400E-1
2.119982375E0,1.763031840E0,6.833243966E-1,-3.538428843E-1
2.130001375E0,1.595769644E0,8.346018195E-1,-3.070663214E-1
2.140021375E0,1.001290083E0,1.248083353E0,-1.563287526E-1
2.150041375E0,-3.817028105E-1,1.855487108E0,9.612514079E-2
2.160061375E0,-1.455285430E0,1.958169103E0,2.569467723E-1
2.170081375E0,-1.971019387E0,1.841998219E0,2.699705958E-1
2.180101375E0,-2.061026096E0,1.646283865E0,1.761434525E-1
2.190121375E0,-1.815282226E0,1.328890800E0,5.453936011E-2
2.200141375E0,-1.400424004E0,9.242099524E-1,-4.277014732E-2
2.210160375E0,-8.980921507E-1,5.002050400E-1,-1.014894545E-1
2.220180375E0,-3.546779156E-1,2.706014179E-2,-1.186596528E-1
2.230200375E0,9.916958958E-2,-4.324989319E-1,-6.768905371E-2
2.240220375E0,3.829847872E-1,-9.017788172E-1,4.324012622E-2
2.250240375E0,4.617555141E-1,-1.455491304E0,1.822757721E-1
2.260260375E0,3.338923454E-1,-2.070836306E0,2.939580977E-1
2.270279375E0,1.141749229E-2,-2.627325773E0,3.753465116E-1
2.280299375E0,-3.822211623E-1,-2.964123726E0,4.765913785E-1
2.290319375E0,-5.864011049E-1,-3.091805696E0,6.001777649E-1
2.300339375E0,-4.946525693E-1,-3.130766869E0,6.636300087E-1
2.310359375E0,-2.405522317E-1,-3.003870487E0,6.738650799E-1
2.320379375E0,-1.559473854E-2,-2.556960106E0,6.439636350E-1
2.330399375E0,1.317591071E-1,-1.922844291E0,5.697863102E-1
2.340418375E0,1.886884421E-1,-1.047253609E0,4.872799516E-1
2.350438375E0,2.179042995E-1,-3.155431449E-1,3.810447454E-1
2.360458375E0,2.038989961E-1,1.429146975E-1,2.539861202E-1
2.370478375E0,1.730738878E-1,4.430833459E-1,1.098536626E-1
2.380498375E0,1.669360995E-1,7.191868424E-1,-2.413236909E-2
2.390518375E0,3.022793829E-1,1.129375815E0,-1.426889747E-1
2.400537375E0,6.343430281E-1,1.695725799E0,-2.311527878E-1
2.410557375E0,8.854394555E-1,2.009018183E0,-2.225686759E-1
2.420577375E0,7.649646997E-1,1.628723979E0,-9.515532851E-2
2.430597375E0,3.612319231E-1,8.149150610E-1,1.017977521E-1
2.440617375E0,-2.599887550E-2,1.614338756E-1,2.733266354E-1
2.450637375E0,-2.421241850E-1,-1.478327215E-1,3.251188397E-1
2.460657375E0,-2.843698859E-1,-1.999893934E-1,2.731326222E-1
2.470676375E0,-1.830318123E-1,-1.128838286E-1,1.786577255E-1
2.480696375E0,2.513230592E-2,9.190180153E-2,8.173410594E-2
2.490716375E0,2.867176235E-1,4.016433358E-1,-3.000169247E-2
2.500736375E0,4.833481312E-1,6.930655837E-1,-1.635712087E-1
2.510756375E0,5.053793192E-1,8.852161765E-1,-3.033274114E-1
2.520776375E0,3.331763446E-1,8.978952169E-1,-4.184963703E-1
2.530795375E0,1.229687035E-1,7.808623314E-1,-4.911825657E-1
2.540815125E0,3.076384775E-3,6.375309825E-1,-5.271407962E-1
2.550835125E0,-2.175496891E-2,5.801510215E-1,-5.103860497E-1
2.560855125E0,1.849844493E-2,6.430333257E-1,-4.386562109E-1
2.570875125E0,5.978218839E-2,8.593890071E-1,-3.149141371E-1
2.580895125E0,5.874675140E-2,1.121678829E0,-1.744853556E-1
2.590915125E0,1.055726688E-2,1.210505724E0,-4.757664353E-2
2.600934125E0,-2.823140845E-2,8.476114869E-1,1.156772599E-1
2.610954125E0,-5.223724991E-2,-5.987635255E-2,3.460030556E-1
2.620974125E0,-2.766772732E-2,-1.122581005E0,5.958368182E-1
2.630994125E0,4.871246219E-2,-1.823721409E0,7.823467851E-1
2.641014125E0,1.545419544E-1,-2.076873064E0,8.999077678E-1
2.651034125E0,2.396432161E-1,-2.095911741E0,8.971056342E-1
2.661053125E0,2.928294539E-1,-2.062260628E0,8.078090549E-1
2.671073125E0,3.615992069E-1,-2.106461287E0,6.587772965E-1
2.681093125E0,4.827035367E-1,-2.191547632E0,4.427754879E-1
2.691113125E0,6.405490041E-1,-2.091221094E0,1.847538203E-1
2.701133125E0,7.183228731E-1,-1.687180996E0,-3.155345470E-2
2.711153125E0,6.294378638E-1,-1.105577230E0,-1.391435266E-1
2.721172125E0,3.552230299E-1,-4.978079200E-1,-1.890873760E-1
2.731192125E0,-5.887829699E-3,2.574089915E-2,-1.919244379E-1
2.741212125E0,-3.418069780E-1,4.587975442E-1,-1.778174043E-1
2.751232125E0,-5.712677836E-1,7.367491126E-1,-1.753675342E-1
2.761252125E0,-6.489667892E-1,8.446382880E-1,-1.730489880E-1
2.771272125E0,-5.682224035E-1,7.910402417E-1,-1.611778438E-1
2.781292125E0,-3.936644197E-1,6.424304843E-1,-1.192852557E-1
2.791311125E0,-1.887985617E-1,5.342777967E-1,-1.343687717E-2
2.801331125E0,-2.376886085E-2,4.751822650E-1,1.210948303E-1
2.811351125E0,7.665810734E-2,3.119716644E-1,2.343975753E-1
2.821371125E0,7.404155284E-2,-3.947716951E-2,2.667331398E-1
2.831391125E0,-2.165161073E-2,-4.782812297E-1,2.529771626E-1
2.841411125E0,-1.119314432E-1,-8.291500807E-1,2.456066012E-1
2.851430125E0,-1.488728970E-1,-1.075798631E0,2.632180750E-1
2.861450125E0,-9.919562936E-2,-1.220693827E0,3.091528118E-1
2.871470125E0,4.052475840E-2,-1.184139252E0,3.769457042E-1
2.881490125E0,2.173892707E-1,-9.640528560E-1,4.973610640E-1
2.891510125E0,3.590422273E-1,-6.330460906E-1,6.603060365E-1
2.901530125E0,3.967067599E-1,-2.676563561E-1,8.497058153E-1
2.911549125E0,2.543632090E-1,-4.301502556E-2,9.913831949E-1
2.921569125E0,-4.077310115E-2,3.424753621E-2,9.963566065E-1
2.931589125E0,-3.575396538E-1,8.018621802E-2,8.470357656E-1
2.941609125E0,-5.990124345E-1,1.465684325E-1,5.884912610E-1
2.951629125E0,-7.006791234E-1,1.690493226E-1,2.599942982E-1
2.961649125E0,-6.419319510E-1,1.013307273E-1,-8.774716407E-2
2.971668125E0,-4.490673542E-1,-2.502314001E-2,-3.956128359E-1
2.981688125E0,-2.155619115E-1,-1.110216677E-1,-6.443083882E-1
2.991708125E0,-2.093818411E-2,-1.062377244E-1,-8.031914830E-1
3.001728125E0,1.034767106E-1,6.240507960E-2,-8.468960524E-1
3.011748125E0,1.548692435E-1,3.146281540E-1,-8.078903556E-1
3.021768125E0,1.628203839E-1,4.942256212E-1,-7.153699994E-1
3.031787125E0,1.605086774E-1,5.546027422E-1,-6.413572431E-1
3.041807125E0,1.511591077E-1,6.012589335E-1,-6.030220985E-1
3.051827125E0,1.801807284E-1,7.369875908E-1,-5.814532042E-1
3.061847125E0,3.156687915E-1,1.036908388E0,-6.013821363E-1
3.071867125E0,6.565175056E-1,1.490496755E0,-6.754577756E-1
3.081887125E0,1.181916595E0,1.856795907E0,-7.788179517E-1
3.091906125E0,1.575746536E0,1.501471043E0,-7.946671247E-1
3.101926125E0,1.353501558E0,-9.806983918E-2,-5.922890306E-1
3.111946125E0,5.537710190E-1,-2.222837687E0,-2.191667259E-1
3.121966125E0,-1.750016809E-1,-3.494005919E0,1.126255915E-1
3.131986125E0,-4.901423156E-1,-3.640096664E0,3.097534776E-1
3.142006125E0,-4.092272222E-1,-2.995453358E0,3.705435991E-1
3.152025125E0,-1.574960351E-1,-1.983837605E0,3.595196009E-1
3.162045125E0,1.219393127E-2,-9.436703324E-1,3.343402147E-1
3.172065125E0,3.409804776E-2,-8.029688895E-2,3.291074336E-1
3.182085125E0,-5.008314177E-2,6.561651230E-1,3.209855855E-1
3.192105125E0,-1.864033937E-1,1.243982911E0,2.707007825E-1
3.202124125E0,-3.160356879E-1,1.631628394E0,1.916118264E-1
3.212144125E0,-3.815382123E-1,1.840816379E0,1.099924818E-1
3.222164125E0,-3.101913333E-1,1.902131438E0,2.474628948E-2
3.232184125E0,-1.631322876E-2,1.791485786E0,-6.586266309E-2
3.242204125E0,4.717283547E-1,1.448844790E0,-1.197722331E-1
3.252224125E0,9.057157636E-1,7.683936954E-1,-9.059344977E-2
3.262243125E0,1.021270633E0,-7.357666641E-2,4.198776186E-2
3.272263125E0,8.012056947E-1,-8.540914655E-1,1.760136187E-1
3.282283125E0,4.099995792E-1,-1.429612398E0,2.628497183E-1
3.292303125E0,4.269195348E-2,-1.718773961E0,3.111301064E-1
3.302323125E0,-1.324977130E-1,-1.683391809E0,3.180713654E-1
3.312343125E0,-1.058268249E-1,-1.344811797E0,3.120099902E-1
3.322362125E0,2.080541477E-2,-8.359728456E-1,2.889505029E-1
3.332382125E0,6.761156768E-2,-3.574517071E-1,2.277639210E-1
3.342402125E0,-8.891195990E-3,-4.841104522E-2,1.341266483E-1
3.352422125E0,-1.387125850E-1,9.251118451E-2,3.645236790E-2
3.362442125E0,-2.590429783E-1,1.320713758E-1,-2.953836694E-2
3.372462125E0,-3.236363232E-1,1.345993280E-1,-4.912814498E-2
3.382481125E0,-3.123144209E-1,1.443829834E-1,-3.585920855E-2
