"Time (s)","X (µT)","Y (µT)","Z (µT)"
1.281408333E-2,2.477927780E1,-2.482189941E1,-2.344116211E1
2.283308333E-2,2.482085800E1,-2.475775909E1,-2.347766113E1
3.285208333E-2,2.484214783E1,-2.463951492E1,-2.334881592E1
4.287208333E-2,2.498405457E1,-2.423021698E1,-2.364569092E1
5.289108333E-2,2.504983139E1,-2.388695908E1,-2.411917114E1
6.291008333E-2,2.490674591E1,-2.379978561E1,-2.426992798E1
7.292612499E-2,2.489367104E1,-2.365684509E1,-2.461642456E1
8.294512500E-2,2.479994774E1,-2.353811264E1,-2.424703979E1
9.296412500E-2,2.484664917E1,-2.357595062E1,-2.437588501E1
1.029831250E-1,2.496325111E1,-2.327349472E1,-2.475018311E1
1.130031250E-1,2.501313782E1,-2.298394012E1,-2.487719727E1
1.230221250E-1,2.512310410E1,-2.278911591E1,-2.511264038E1
1.330411250E-1,2.515702057E1,-2.232658768E1,-2.545294189E1
1.430611250E-1,2.516754532E1,-2.203369904E1,-2.568600464E1
1.530801250E-1,2.529804039E1,-2.165630722E1,-2.577761841E1
1.630991250E-1,2.552319717E1,-2.124155807E1,-2.586029053E1
1.731181250E-1,2.569174576E1,-2.106999588E1,-2.587374878E1
1.831381250E-1,2.608720398E1,-2.080799866E1,-2.607470703E1
1.931571250E-1,2.647064781E1,-2.048751450E1,-2.581838989E1
2.031761250E-1,2.678483582E1,-2.029125977E1,-2.554248047E1
2.131951250E-1,2.736413383E1,-1.998548126E1,-2.524072266E1
2.232151250E-1,2.797521973E1,-1.970334244E1,-2.479779053E1
2.332341250E-1,2.876739120E1,-1.953837585E1,-2.426931763E1
2.432531250E-1,2.958719254E1,-1.926491928E1,-2.370547485E1
2.532731250E-1,3.033254242E1,-1.878487015E1,-2.275750732E1
2.632921250E-1,3.103083038E1,-1.819347000E1,-2.213360596E1
2.733111250E-1,3.188649368E1,-1.778995895E1,-2.145394897E1
2.833301250E-1,3.259528351E1,-1.714830780E1,-2.098745728E1
2.933501250E-1,3.348657608E1,-1.666399384E1,-1.972811890E1
3.033691250E-1,3.446228790E1,-1.604442978E1,-1.886791992E1
3.133881250E-1,3.541021347E1,-1.518975449E1,-1.794281006E1
3.234071250E-1,3.639896393E1,-1.418206787E1,-1.647335815E1
3.334271250E-1,3.741023636E1,-1.312141418E1,-1.540240479E1
3.434461250E-1,3.830060577E1,-1.173829269E1,-1.408666992E1
3.534651250E-1,3.915348434E1,-1.020672607E1,-1.277099609E1
3.634851250E-1,3.994186020E1,-8.692558289E0,-1.172476196E1
3.735041250E-1,4.043457413E1,-6.911979675E0,-1.113922119E1
3.835231250E-1,4.072900391E1,-5.225318909E0,-1.166815186E1
3.935421250E-1,4.074993896E1,-3.609397888E0,-1.250912476E1
4.035621250E-1,4.067603302E1,-2.325660706E0,-1.356826782E1
4.135811250E-1,4.058154678E1,-1.095825195E0,-1.439437866E1
4.236001250E-1,4.022859573E1,-5.141448975E-2,-1.530364990E1
4.336191250E-1,4.018759155E1,7.575988770E-1,-1.581042480E1
4.436391250E-1,4.036939240E1,1.324302673E0,-1.552056885E1
4.536581250E-1,4.068050003E1,1.624725342E0,-1.440438843E1
4.636771250E-1,4.099251556E1,1.954887390E0,-1.345202637E1
4.736971250E-1,4.139521027E1,2.141258240E0,-1.170974731E1
4.837161250E-1,4.183378601E1,2.307205200E0,-1.022354126E1
4.937351250E-1,4.219093323E1,2.571434021E0,-9.089111328E0
5.037541250E-1,4.239392471E1,2.845886230E0,-7.822021484E0
5.137741250E-1,4.254292297E1,3.249458313E0,-7.055084229E0
5.237931250E-1,4.262471390E1,3.613082886E0,-5.828460693E0
5.338121250E-1,4.265721512E1,4.082153320E0,-5.519195557E0
5.438321250E-1,4.266912079E1,4.452728271E0,-5.386596680E0
5.538511250E-1,4.252378845E1,4.944953918E0,-5.153564453E0
5.638701250E-1,4.248509979E1,5.259529114E0,-4.889526367E0
5.738891250E-1,4.259193802E1,5.280113220E0,-3.857666016E0
5.839091250E-1,4.261555481E1,5.382476807E0,-3.162506104E0
5.939281250E-1,4.263439178E1,5.248069763E0,-2.249145508E0
6.039471250E-1,4.261618805E1,4.845558167E0,-9.338684082E-1
6.139671250E-1,4.266635895E1,4.459609985E0,2.681579590E-1
6.239861250E-1,4.257828140E1,3.589355469E0,1.585449219E0
6.340051250E-1,4.274392700E1,2.439323425E0,2.711456299E0
6.440241250E-1,4.264512253E1,1.592094421E0,4.086639404E0
6.540441250E-1,4.241953278E1,5.642852783E-1,5.563568115E0
6.640631250E-1,4.212504578E1,-3.951568604E-1,7.470886230E0
6.740821250E-1,4.157860947E1,-1.021392822E0,1.079083252E1
6.841021250E-1,4.059243774E1,-1.246673584E0,1.421234131E1
6.941211250E-1,3.952453613E1,-1.277740479E0,1.745080566E1
7.041401250E-1,3.838795853E1,-1.445343018E0,2.008886719E1
7.141591250E-1,3.787103653E1,-1.914360046E0,2.150338745E1
7.241791250E-1,3.773007202E1,-3.035820007E0,2.157391357E1
7.341981250E-1,3.749916458E1,-4.268592834E0,2.157568359E1
7.442171250E-1,3.717499924E1,-5.483764648E0,2.201843262E1
7.542371250E-1,3.672212601E1,-6.619003296E0,2.267028809E1
7.642561250E-1,3.618373489E1,-7.696968079E0,2.348815918E1
7.742751250E-1,3.523188782E1,-8.402748108E0,2.472418213E1
7.842941250E-1,3.418814087E1,-9.240108490E0,2.594787598E1
7.943141250E-1,3.347146988E1,-1.004975128E1,2.688586426E1
8.043331250E-1,3.289309311E1,-1.076347733E1,2.758044434E1
8.143521250E-1,3.230193710E1,-1.111233902E1,2.811520386E1
8.243721250E-1,3.176844025E1,-1.138916397E1,2.861944580E1
8.343911250E-1,3.141909790E1,-1.154793549E1,2.881082153E1
8.444101250E-1,3.140883446E1,-1.184065247E1,2.922634888E1
8.544301250E-1,3.130800819E1,-1.187663269E1,2.938406372E1
8.644491250E-1,3.150156021E1,-1.183889771E1,2.914898682E1
8.744681250E-1,3.187371445E1,-1.174661255E1,2.898724365E1
8.844871250E-1,3.255892181E1,-1.141888046E1,2.820654297E1
8.945071250E-1,3.310782623E1,-1.080247879E1,2.777685547E1
9.045261250E-1,3.363247299E1,-1.028950119E1,2.714678955E1
9.145451250E-1,3.432057190E1,-9.812244415E0,2.664126587E1
9.245651250E-1,3.497238541E1,-9.687088013E0,2.609503174E1
9.345841250E-1,3.540690231E1,-9.774799347E0,2.520242310E1
9.446031250E-1,3.605665588E1,-1.021931839E1,2.413793945E1
9.546231250E-1,3.641448975E1,-1.069921494E1,2.317630005E1
9.646421250E-1,3.665089417E1,-1.105698013E1,2.281692505E1
9.746611250E-1,3.669406509E1,-1.103470993E1,2.324874878E1
9.846801250E-1,3.636596680E1,-1.072096634E1,2.380523682E1
9.947001250E-1,3.628261185E1,-1.022658920E1,2.436999512E1
1.004719125E0,3.653640366E1,-9.737533569E0,2.436288452E1
1.014738125E0,3.721292114E1,-8.753982544E0,2.339431763E1
1.024758125E0,3.812142563E1,-7.685745239E0,2.206216431E1
1.034777125E0,3.888030624E1,-6.568206787E0,2.083489990E1
1.044796125E0,3.973436356E1,-5.457023621E0,1.962570190E1
1.054816125E0,4.033547974E1,-4.402503967E0,1.839190674E1
1.064835333E0,4.083398819E1,-3.730194092E0,1.730789185E1
1.074854333E0,4.131885910E1,-3.484260559E0,1.668484497E1
1.084873333E0,4.160731506E1,-3.057945251E0,1.597885132E1
1.094893333E0,4.174080276E1,-2.983459473E0,1.566641235E1
1.104912333E0,4.182195663E1,-2.735160828E0,1.562286377E1
1.114931333E0,4.185757446E1,-2.556053162E0,1.543109131E1
1.124951333E0,4.186648941E1,-2.453239441E0,1.551245117E1
1.134970333E0,4.182582092E1,-2.057586670E0,1.540179443E1
1.144989333E0,4.185712433E1,-1.716644287E0,1.526464844E1
1.155009333E0,4.187174225E1,-1.479263306E0,1.533541870E1
1.165028333E0,4.187129974E1,-1.492118835E0,1.545123291E1
1.175047333E0,4.194951630E1,-1.493247986E0,1.494555664E1
1.185066333E0,4.220781326E1,-1.642280579E0,1.355673218E1
1.195086333E0,4.259306717E1,-1.371528625E0,1.200161743E1
1.205105333E0,4.296329880E1,-1.047866821E0,1.046469116E1
1.215124333E0,4.318830872E1,-5.644226074E-1,9.188140869E0
1.225144333E0,4.331858826E1,-1.980743408E-1,8.072143555E0
1.235163333E0,4.337025070E1,-1.258468628E-1,7.155609131E0
1.245182333E0,4.349131012E1,-4.026794434E-1,6.577209473E0
1.255202333E0,4.359982681E1,-6.527938843E-1,6.075897217E0
1.265221333E0,4.358358002E1,-8.849639893E-1,5.487670898E0
1.275240333E0,4.355164337E1,-1.270668030E0,5.209899902E0
1.285260333E0,4.343939590E1,-1.364952087E0,5.102783203E0
1.295279333E0,4.340142441E1,-1.486701965E0,5.029998779E0
1.305298333E0,4.342815781E1,-1.524902344E0,5.275970459E0
1.315318333E0,4.325498581E1,-1.812759399E0,5.913696289E0
1.325337333E0,4.301188660E1,-2.064231873E0,6.620513916E0
1.335356333E0,4.277788925E1,-2.413108826E0,7.855651855E0
1.345375333E0,4.242734528E1,-2.867637634E0,9.498931885E0
1.355395333E0,4.176668930E1,-3.044219971E0,1.165573120E1
1.365414333E0,4.104845047E1,-3.037879944E0,1.402291870E1
1.375433333E0,4.008567810E1,-2.674385071E0,1.624343872E1
1.385453333E0,3.911460876E1,-1.832427979E0,1.833041382E1
1.395472333E0,3.841611481E1,-6.092376709E-1,2.003121948E1
1.405491333E0,3.817118454E1,5.104141235E-1,2.069885254E1
1.415511333E0,3.804885864E1,2.187408447E0,2.071640015E1
1.425530333E0,3.815316772E1,3.914199829E0,2.057348633E1
1.435549333E0,3.845992661E1,6.053634644E0,2.009457397E1
1.445569333E0,3.847526550E1,8.380805969E0,1.941064453E1
1.455588333E0,3.833573532E1,1.084767151E1,1.915057373E1
1.465607333E0,3.784630585E1,1.317127991E1,1.925347900E1
1.475627333E0,3.716700745E1,1.530605316E1,1.934234619E1
1.485646333E0,3.650706863E1,1.702407074E1,1.958322144E1
1.495665333E0,3.610174179E1,1.798309326E1,1.972467041E1
1.505685333E0,3.618497467E1,1.838657379E1,1.914651489E1
1.515704333E0,3.641695404E1,1.848855591E1,1.856356812E1
1.525723333E0,3.652772141E1,1.856387329E1,1.797085571E1
1.535743333E0,3.653974915E1,1.865129852E1,1.765982056E1
1.545762333E0,3.652018356E1,1.893331146E1,1.715631104E1
1.555781333E0,3.650697708E1,1.896765900E1,1.702288818E1
1.565801333E0,3.665905380E1,1.865639496E1,1.713223267E1
1.575820333E0,3.667103958E1,1.848483276E1,1.695480347E1
1.585839333E0,3.662416077E1,1.828348541E1,1.701458740E1
1.595858333E0,3.668379211E1,1.826376343E1,1.714303589E1
1.605878333E0,3.667679214E1,1.822331238E1,1.714035034E1
1.615897333E0,3.671622467E1,1.806286621E1,1.710705566E1
1.625916333E0,3.664392090E1,1.779013062E1,1.740087891E1
1.635936333E0,3.673035049E1,1.750447845E1,1.795205688E1
1.645955333E0,3.677138901E1,1.702561188E1,1.850677490E1
1.655974333E0,3.663224411E1,1.650051117E1,1.941333008E1
1.665994333E0,3.647295761E1,1.583616638E1,2.017565918E1
1.676013333E0,3.655377960E1,1.530845642E1,2.050360107E1
1.686032333E0,3.674251938E1,1.493128967E1,1.992214966E1
1.696052333E0,3.728712845E1,1.450218964E1,1.874734497E1
1.706071333E0,3.782442856E1,1.429148102E1,1.736618042E1
1.716090333E0,3.843671799E1,1.424284363E1,1.572171021E1
1.726110333E0,3.883644104E1,1.456082916E1,1.414285278E1
1.736129333E0,3.911019897E1,1.480831146E1,1.267858887E1
1.746148333E0,3.940252686E1,1.494515991E1,1.170620728E1
1.756168333E0,3.954262924E1,1.506761169E1,1.095971680E1
1.766187333E0,3.981783295E1,1.505180359E1,1.045132446E1
1.776206333E0,3.990982437E1,1.503632355E1,1.016616821E1
1.786226333E0,3.990747070E1,1.511496735E1,1.010046387E1
1.796245333E0,3.982305527E1,1.543898010E1,1.017163086E1
1.806264333E0,3.958768463E1,1.627942657E1,1.050903320E1
1.816284333E0,3.904050064E1,1.749217987E1,1.118081665E1
1.826303333E0,3.836691284E1,1.883792877E1,1.156210327E1
1.836322333E0,3.767048264E1,2.029712677E1,1.187774658E1
1.846342333E0,3.698694611E1,2.186271667E1,1.210021973E1
1.856361333E0,3.628845596E1,2.329042053E1,1.255734253E1
1.866380333E0,3.560325241E1,2.452812195E1,1.301089478E1
1.876400333E0,3.474109650E1,2.577664185E1,1.345523071E1
1.886419333E0,3.392802048E1,2.709556580E1,1.368463135E1
1.896438333E0,3.320829773E1,2.806307220E1,1.418060303E1
1.906458333E0,3.258457565E1,2.898743439E1,1.442166138E1
1.916477333E0,3.214279556E1,2.987459564E1,1.442077637E1
1.926496333E0,3.207736969E1,3.019210052E1,1.448352051E1
1.936516333E0,3.226324081E1,3.014981842E1,1.448159790E1
1.946535333E0,3.279937744E1,2.979273987E1,1.433328247E1
1.956554333E0,3.339854431E1,2.941059113E1,1.393667603E1
1.966574333E0,3.427914429E1,2.900663757E1,1.316156006E1
1.976593333E0,3.510596085E1,2.833530426E1,1.200958252E1
1.986612333E0,3.600968170E1,2.762934875E1,1.057733154E1
1.996631333E0,3.733534241E1,2.618717957E1,9.145538330E0
2.006651333E0,3.863221359E1,2.463712311E1,7.946716309E0
2.016670333E0,3.992524719E1,2.243509674E1,7.601501465E0
2.026690333E0,4.081820679E1,2.033662415E1,8.073669434E0
2.036709333E0,4.156873322E1,1.866210938E1,8.909210205E0
2.046728333E0,4.199662018E1,1.761406708E1,9.048156738E0
2.056747333E0,4.238979340E1,1.698462677E1,7.967864990E0
2.066771375E0,4.290673447E1,1.617731476E1,6.069030762E0
2.076790375E0,4.335441971E1,1.544612122E1,4.466522217E0
2.086809375E0,4.361534119E1,1.489584351E1,3.672210693E0
2.096829375E0,4.377375031E1,1.444776154E1,3.672546387E0
2.106848375E0,4.375456238E1,1.422222900E1,3.593109131E0
2.116867375E0,4.364517212E1,1.439403534E1,2.623016357E0
2.126887375E0,4.359297943E1,1.461445618E1,9.795837402E-1
2.136906375E0,4.325934601E1,1.536006927E1,-3.933715820E-1
2.146925375E0,4.276797485E1,1.637547302E1,-1.615356445E0
2.156945375E0,4.241657639E1,1.756716156E1,-2.591552734E0
2.166964375E0,4.179195404E1,1.886774445E1,-2.626922607E0
2.176983375E0,4.124211884E1,2.007065582E1,-2.565155029E0
2.187003375E0,4.067648697E1,2.149401093E1,-2.305633545E0
2.197022375E0,4.006369019E1,2.298120880E1,-1.561676025E0
2.207041375E0,3.933101654E1,2.449417877E1,-3.429565430E-1
2.217061375E0,3.835943222E1,2.624201965E1,8.432922363E-1
2.227080375E0,3.724376297E1,2.791364288E1,1.732788086E0
2.237099375E0,3.642230606E1,2.925515747E1,2.322082520E0
2.247119375E0,3.547266388E1,3.049874878E1,3.084228516E0
2.257138375E0,3.428479767E1,3.195394897E1,4.400695801E0
2.267157375E0,3.271546173E1,3.338476562E1,5.385406494E0
2.277177375E0,3.133574867E1,3.486102295E1,5.321319580E0
2.287196375E0,2.992206383E1,3.627187347E1,4.374237061E0
2.297215375E0,2.877430534E1,3.740956879E1,3.570739746E0
2.307235375E0,2.804354477E1,3.802812958E1,3.519592285E0
2.317254375E0,2.747131729E1,3.840894318E1,3.620819092E0
2.327273375E0,2.732524490E1,3.852714539E1,3.637207031E0
2.337293375E0,2.765656281E1,3.827676392E1,3.170867920E0
2.347312375E0,2.804564285E1,3.791213989E1,3.148590088E0
2.357331375E0,2.854819870E1,3.762227631E1,3.410461426E0
2.367351375E0,2.897411919E1,3.713214111E1,3.521270752E0
2.377370375E0,2.930588722E1,3.690838623E1,3.653625488E0
2.387389375E0,2.962620735E1,3.663223267E1,3.634338379E0
2.397409375E0,2.989167976E1,3.648944855E1,3.799957275E0
2.407428375E0,3.002972031E1,3.628828430E1,3.892761230E0
2.417447375E0,3.021331596E1,3.608792877E1,3.973449707E0
2.427467375E0,3.029938698E1,3.589873505E1,4.259613037E0
2.437486375E0,3.031623077E1,3.584529877E1,4.513580322E0
2.447505375E0,3.009430122E1,3.594462585E1,5.040924072E0
2.457525375E0,2.980791664E1,3.616969299E1,5.336395264E0
2.467544375E0,2.918245316E1,3.647465515E1,5.453369141E0
2.477563375E0,2.883181572E1,3.688465118E1,5.727111816E0
2.487583375E0,2.838175964E1,3.725527954E1,5.684112549E0
2.497602375E0,2.786437225E1,3.776091003E1,5.800628662E0
2.507621375E0,2.748963928E1,3.806163788E1,5.934051514E0
2.517641375E0,2.711519623E1,3.822729492E1,6.010528564E0
2.527660375E0,2.664314651E1,3.853261566E1,6.004699707E0
2.537679375E0,2.635526466E1,3.870775604E1,6.097717285E0
2.547699375E0,2.605796814E1,3.899024200E1,6.118225098E0
2.557718375E0,2.567608070E1,3.931568909E1,6.084350586E0
2.567737375E0,2.540270233E1,3.936566162E1,6.240112305E0
2.577756375E0,2.540973473E1,3.928010559E1,6.188903809E0
2.587776375E0,2.523621750E1,3.948963928E1,6.198608398E0
2.597795375E0,2.507058907E1,3.952757263E1,6.324981689E0
2.607814375E0,2.503594971E1,3.954118347E1,6.386413574E0
2.617834375E0,2.514511871E1,3.964774323E1,6.490631104E0
2.627853375E0,2.514464188E1,3.959441376E1,6.529876709E0
2.637872375E0,2.509679031E1,3.964840698E1,6.577392578E0
2.647892375E0,2.511854172E1,3.952809143E1,6.738067627E0
2.657911375E0,2.514608383E1,3.951014709E1,6.533294678E0
2.667930375E0,2.515168381E1,3.939208221E1,6.675567627E0
2.677950375E0,2.529244614E1,3.934625244E1,6.738983154E0
2.687969375E0,2.523155594E1,3.926019287E1,6.812927246E0
2.697988375E0,2.537424469E1,3.917584229E1,7.071929932E0
2.708008375E0,2.541123199E1,3.922013092E1,7.302093506E0
2.718027375E0,2.540825462E1,3.921845245E1,7.455291748E0
2.728046375E0,2.546231461E1,3.921208191E1,7.362518311E0
2.738066375E0,2.571617126E1,3.917835236E1,7.301452637E0
2.748085375E0,2.583840561E1,3.897107697E1,7.093170166E0
2.758104375E0,2.605702972E1,3.891569519E1,7.083374023E0
2.768124375E0,2.620672417E1,3.867565155E1,6.881134033E0
2.778143375E0,2.650589752E1,3.846329498E1,6.872283936E0
2.788162375E0,2.683454895E1,3.826217651E1,6.559265137E0
2.798182375E0,2.726092529E1,3.780673218E1,6.410797119E0
2.808201375E0,2.759485245E1,3.750425720E1,6.053192139E0
2.818220375E0,2.792068863E1,3.736334229E1,6.006713867E0
2.828240375E0,2.818180466E1,3.701428223E1,5.876281738E0
2.838259375E0,2.850186157E1,3.670262146E1,5.881622314E0
2.848278375E0,2.883337784E1,3.651135254E1,5.911590576E0
2.858298375E0,2.910871696E1,3.628002167E1,6.097351074E0
2.868317375E0,2.927974701E1,3.606208038E1,6.024291992E0
2.878336375E0,2.954607773E1,3.596652985E1,6.027099609E0
2.888356375E0,2.965911293E1,3.583558655E1,5.930999756E0
2.898375375E0,2.984064674E1,3.552703857E1,5.929077148E0
2.908394375E0,2.992393684E1,3.529690552E1,5.848419189E0
2.918414375E0,2.992566872E1,3.528339386E1,5.910888672E0
2.928433375E0,3.004391098E1,3.518931580E1,5.933624268E0
2.938452375E0,3.007387543E1,3.532807922E1,5.888397217E0
2.948471375E0,2.989995384E1,3.543027496E1,6.071807861E0
2.958491375E0,2.986738396E1,3.554595947E1,6.298583984E0
2.968510375E0,2.975963211E1,3.550019073E1,6.505340576E0
2.978529375E0,2.975650406E1,3.561270905E1,6.548339844E0
2.988549375E0,2.947541237E1,3.569667816E1,6.715209961E0
2.998568375E0,2.927420998E1,3.589976501E1,6.733184814E0
3.008587375E0,2.904427719E1,3.613436890E1,6.646179199E0
3.018607375E0,2.881808662E1,3.624274445E1,6.708618164E0
3.028626375E0,2.860596275E1,3.640453339E1,6.593963623E0
3.038645375E0,2.837975502E1,3.668814850E1,6.718383789E0
3.048665375E0,2.809015465E1,3.689741516E1,6.553863525E0
3.058684375E0,2.793991089E1,3.695463562E1,6.663543701E0
3.068700000E0,2.766625595E1,3.716661072E1,6.259735107E0
3.078720000E0,2.747141647E1,3.719770050E1,6.261535645E0
3.088739000E0,2.729920578E1,3.740578461E1,6.161163330E0
3.098758000E0,2.728367233E1,3.749160004E1,5.803314209E0
3.108778000E0,2.717497063E1,3.740585327E1,5.625793457E0
3.118797000E0,2.730743408E1,3.741307068E1,5.346649170E0
3.128816000E0,2.734695816E1,3.730957794E1,4.890289307E0
3.138836000E0,2.745967102E1,3.710565948E1,4.680084229E0
3.148855000E0,2.746531296E1,3.700099182E1,4.465637207E0
3.158874000E0,2.765140915E1,3.682183838E1,4.654602051E0
3.168894000E0,2.767027283E1,3.666833496E1,4.804809570E0
3.178913000E0,2.786628723E1,3.637089539E1,4.741058350E0
3.188932000E0,2.816288376E1,3.604824829E1,4.913330078E0
3.198952000E0,2.825461006E1,3.583934021E1,4.935150146E0
3.208971000E0,2.852596664E1,3.552117157E1,5.301483154E0
3.218990000E0,2.885671043E1,3.520045471E1,5.612823486E0
3.229010000E0,2.915418625E1,3.468508911E1,5.852996826E0
3.239029000E0,2.950183868E1,3.426498413E1,6.276489258E0
3.249048000E0,2.972878456E1,3.379267120E1,6.936676025E0
3.259067000E0,3.004887581E1,3.323165894E1,7.356842041E0
3.269087000E0,3.025367737E1,3.290068817E1,7.992736816E0
3.279106000E0,3.054408264E1,3.231370544E1,8.591705322E0
3.289125000E0,3.082333374E1,3.173635864E1,8.850219727E0
3.299145000E0,3.126101875E1,3.100629425E1,9.306915283E0
3.309164000E0,3.167004776E1,3.033744049E1,9.822296143E0
3.319183000E0,3.204020309E1,2.982672119E1,9.867736816E0
3.329203000E0,3.252231979E1,2.916040039E1,1.023489380E1
3.339222000E0,3.290250015E1,2.842610168E1,1.019989014E1
3.349241000E0,3.308312225E1,2.793045044E1,1.028491211E1
3.359261000E0,3.347982407E1,2.740345764E1,1.041036987E1
3.369280000E0,3.376582336E1,2.680099487E1,1.068685913E1
3.379299000E0,3.408577728E1,2.620845032E1,1.075860596E1
3.389319000E0,3.428224564E1,2.548373413E1,1.075241089E1
3.399338000E0,3.460989380E1,2.515851593E1,1.084182739E1
3.409357000E0,3.483231735E1,2.473780823E1,1.080447388E1
3.419377000E0,3.529817963E1,2.419480133E1,1.063232422E1
3.429396000E0,3.547412491E1,2.383574677E1,1.023178101E1
3.439415000E0,3.574398422E1,2.336386108E1,9.852111816E0
3.449435000E0,3.599473572E1,2.281655884E1,9.778930664E0
3.459454000E0,3.636651993E1,2.211175537E1,9.757293701E0
3.469473000E0,3.647233582E1,2.167761230E1,9.416290283E0
3.479492000E0,3.671303177E1,2.128568268E1,9.453338623E0
3.489512000E0,3.682624817E1,2.071422577E1,9.792724609E0
3.499531000E0,3.705342865E1,2.027259064E1,1.014724731E1
3.509550000E0,3.712703705E1,1.971807098E1,1.023815918E1
3.519570000E0,3.728446960E1,1.932581329E1,1.043280029E1
