"Time (s)","X (µT)","Y (µT)","Z (µT)"
5.016762500E-2,3.349245453E1,-2.162923813E1,-3.348638153E1
6.016262500E-2,3.344577789E1,-2.168670273E1,-3.349118805E1
7.015762500E-2,3.335463333E1,-2.176377869E1,-3.342056274E1
8.015362500E-2,3.297683334E1,-2.199307632E1,-3.328081131E1
9.014862500E-2,3.249645233E1,-2.217636108E1,-3.357483673E1
1.001436250E-1,3.195176697E1,-2.224813080E1,-3.401157379E1
1.101396250E-1,3.140481567E1,-2.228796577E1,-3.460312271E1
1.201346250E-1,3.087340927E1,-2.209265137E1,-3.525650024E1
1.301296250E-1,3.031087112E1,-2.179956436E1,-3.597906876E1
1.401256250E-1,2.985744476E1,-2.147678375E1,-3.670325089E1
1.501206250E-1,2.950173569E1,-2.104854202E1,-3.729161453E1
1.601166250E-1,2.914200592E1,-2.069058990E1,-3.781243134E1
1.701116250E-1,2.875791550E1,-2.028828430E1,-3.833896255E1
1.801066250E-1,2.845927429E1,-1.995685959E1,-3.887056351E1
1.901026250E-1,2.811505508E1,-1.967444229E1,-3.941063309E1
2.000976250E-1,2.782913589E1,-1.926376724E1,-3.978503418E1
2.100926250E-1,2.773504257E1,-1.880711365E1,-4.020663834E1
2.200886250E-1,2.766369247E1,-1.814678001E1,-4.062128448E1
2.300836250E-1,2.768302155E1,-1.732508278E1,-4.105416870E1
2.400786250E-1,2.776579666E1,-1.637490082E1,-4.141836548E1
2.500746250E-1,2.776725006E1,-1.541098881E1,-4.161178207E1
2.600696250E-1,2.760177612E1,-1.432614899E1,-4.196517181E1
2.700656250E-1,2.703046036E1,-1.318614006E1,-4.261769867E1
2.800606250E-1,2.597529221E1,-1.218337440E1,-4.360856628E1
2.900556250E-1,2.449048615E1,-1.115236092E1,-4.468653870E1
3.000516250E-1,2.264242935E1,-1.022272873E1,-4.582103348E1
3.100466250E-1,2.044845963E1,-9.444145203E0,-4.697192001E1
3.200416250E-1,1.803518677E1,-8.749618530E0,-4.819887543E1
3.300376250E-1,1.552036572E1,-8.116859436E0,-4.944271851E1
3.400326250E-1,1.317409039E1,-7.639604568E0,-5.019952011E1
3.500276250E-1,1.108477306E1,-7.247465134E0,-5.068249512E1
3.600236250E-1,9.309950829E0,-6.832939148E0,-5.108194733E1
3.700186250E-1,8.002854347E0,-6.354907990E0,-5.127807617E1
3.800146250E-1,7.301920891E0,-5.858585358E0,-5.134683228E1
3.900096250E-1,7.047467232E0,-5.350057602E0,-5.137634277E1
4.000045000E-1,7.016264915E0,-4.705308914E0,-5.152117920E1
4.100005000E-1,6.998772621E0,-3.866050720E0,-5.163547516E1
4.199955000E-1,7.042130470E0,-3.206192017E0,-5.174782562E1
4.299905000E-1,6.849171638E0,-2.583574295E0,-5.176975250E1
4.399865000E-1,6.391617775E0,-2.028644562E0,-5.173570251E1
4.499815000E-1,5.821009636E0,-1.536306381E0,-5.184814453E1
4.599775000E-1,5.078097343E0,-1.088613510E0,-5.185976410E1
4.699725000E-1,4.230057716E0,-8.084373474E-1,-5.205925751E1
4.799675000E-1,3.507805824E0,-6.994514465E-1,-5.210160828E1
4.899635000E-1,3.195094109E0,-6.413402557E-1,-5.211833954E1
4.999585000E-1,3.236594200E0,-7.329463959E-1,-5.203593445E1
5.099535000E-1,3.483613014E0,-6.957931519E-1,-5.203496552E1
5.199495000E-1,3.786732674E0,-5.529823303E-1,-5.206513977E1
5.299445000E-1,4.033534050E0,-4.260997772E-1,-5.213746643E1
5.399395000E-1,4.046576500E0,-1.107349396E-1,-5.210773468E1
5.499355000E-1,3.872586250E0,2.859897614E-1,-5.201757812E1
5.599305000E-1,3.825774193E0,3.371276855E-1,-5.179029083E1
5.699265000E-1,3.685193062E0,-5.438232422E-2,-5.178978729E1
5.799215000E-1,3.003321648E0,-9.345149994E-1,-5.194635773E1
5.899165000E-1,1.842872620E0,-2.360202789E0,-5.182337952E1
5.999125000E-1,2.849521637E-1,-4.055286407E0,-5.150712585E1
6.099075000E-1,-1.610437393E0,-5.572603226E0,-5.131795502E1
6.199025000E-1,-3.698873520E0,-6.858480453E0,-5.115689850E1
6.298985000E-1,-6.018087387E0,-8.011966705E0,-5.065509033E1
6.398935000E-1,-8.597680092E0,-9.194665909E0,-4.996078491E1
6.498895000E-1,-1.142688656E1,-1.044884872E1,-4.877544403E1
6.598845000E-1,-1.459202385E1,-1.169489861E1,-4.722460938E1
6.698795000E-1,-1.795194054E1,-1.284510422E1,-4.539235306E1
6.798755000E-1,-2.148203278E1,-1.386545563E1,-4.304256821E1
6.898705000E-1,-2.499964523E1,-1.461441612E1,-4.030208588E1
6.998655000E-1,-2.835884476E1,-1.486370850E1,-3.739343262E1
7.098615000E-1,-3.149356079E1,-1.468009949E1,-3.465075302E1
7.198565000E-1,-3.423405838E1,-1.398983574E1,-3.197163773E1
7.298515000E-1,-3.656954956E1,-1.294612312E1,-2.952825928E1
7.398475000E-1,-3.854090881E1,-1.175966072E1,-2.728218079E1
7.498425000E-1,-4.013855743E1,-1.060999489E1,-2.515417862E1
7.598385000E-1,-4.148764420E1,-9.533308029E0,-2.313164520E1
7.698335000E-1,-4.265110779E1,-8.454523087E0,-2.113315582E1
7.798285000E-1,-4.368766403E1,-7.541740417E0,-1.895973778E1
7.898245000E-1,-4.462010574E1,-6.879371643E0,-1.665332031E1
7.998195000E-1,-4.540835190E1,-6.526536942E0,-1.412825012E1
8.098145000E-1,-4.601521301E1,-6.217697144E0,-1.164945221E1
8.198105000E-1,-4.640410995E1,-6.095052719E0,-9.100873947E0
8.298055000E-1,-4.774574280E1,-9.017127991E0,-4.836291313E0
8.398015000E-1,-4.786550903E1,-8.989559174E0,-2.408032417E0
8.497965000E-1,-4.801768875E1,-8.858633041E0,-6.677322388E-1
8.597915000E-1,-4.816560745E1,-8.668193817E0,6.068992615E-1
8.697875000E-1,-4.821614456E1,-8.537330627E0,1.487493515E0
8.797825000E-1,-4.827478409E1,-8.394779205E0,2.083424568E0
8.897775000E-1,-4.821262741E1,-8.300457001E0,2.488992691E0
8.997735000E-1,-4.821871948E1,-8.133876801E0,2.767647743E0
9.097685000E-1,-4.825239563E1,-7.812038422E0,3.172176361E0
9.197645000E-1,-4.829376221E1,-7.571401596E0,3.795475960E0
9.297595000E-1,-4.838634491E1,-6.399509430E0,5.077167511E0
9.397545000E-1,-4.849731827E1,-5.218669891E0,5.327325821E0
9.497505000E-1,-4.859371948E1,-3.839962006E0,5.465787888E0
9.597455000E-1,-4.859625626E1,-2.348937988E0,5.463867188E0
9.697405000E-1,-4.859368134E1,-8.850173950E-1,5.141124725E0
9.797365000E-1,-4.861969376E1,3.948020935E-1,4.562011719E0
9.897315000E-1,-4.866187668E1,1.248870850E0,3.492658615E0
9.997275000E-1,-4.880544281E1,1.650558472E0,2.054171562E0
1.009722500E0,-4.888735580E1,1.721328735E0,8.896179199E-1
1.019717500E0,-4.889734268E1,1.540222168E0,-5.183219910E-2
1.029713500E0,-4.886796951E1,1.399669647E0,-1.099202156E0
1.039708500E0,-4.886336517E1,1.288352966E0,-2.228579521E0
1.049703500E0,-4.876302719E1,1.368949890E0,-3.602377892E0
1.059699500E0,-4.855678940E1,1.673469543E0,-5.305520058E0
1.069694500E0,-4.829360199E1,1.726535797E0,-7.148549080E0
1.079690500E0,-4.795163727E1,1.435230255E0,-8.856287956E0
1.089685500E0,-4.782275391E1,8.669853210E-1,-9.869154930E0
1.099680500E0,-4.783447266E1,1.662254333E-1,-9.905724525E0
1.109676500E0,-4.800817490E1,-5.173873901E-1,-8.848799706E0
1.119671500E0,-4.818985748E1,-1.005325317E0,-6.976042747E0
1.129666500E0,-4.846949387E1,-1.188137054E0,-4.553872108E0
1.139662500E0,-4.865091324E1,-1.015033722E0,-1.646271706E0
1.149657500E0,-4.871575546E1,-3.341445923E-1,1.415805817E0
1.159653500E0,-4.860633087E1,7.170181274E-1,4.335797310E0
1.169648500E0,-4.835272980E1,2.017990112E0,6.937286854E0
1.179643500E0,-4.794384766E1,3.534603119E0,9.370362282E0
1.189639500E0,-4.746110535E1,5.155609131E0,1.166253376E1
1.199634500E0,-4.700778198E1,6.728233337E0,1.341839409E1
1.209630500E0,-4.648311234E1,8.199756622E0,1.471308613E1
1.219625500E0,-4.597278214E1,9.273746490E0,1.623933983E1
1.229620500E0,-4.537123871E1,9.844989777E0,1.811829376E1
1.239616500E0,-4.487071991E1,9.699737549E0,1.994896507E1
1.249611500E0,-4.473478317E1,8.741279602E0,2.087064171E1
1.259606500E0,-4.492565918E1,7.032844543E0,2.078903961E1
1.269602500E0,-4.513045883E1,4.620960236E0,2.057193565E1
1.279597500E0,-4.516591263E1,2.234973907E0,2.082987595E1
1.289593500E0,-4.523135757E1,3.982467651E-1,2.083502007E1
1.299588500E0,-4.572094345E1,-5.857353210E-1,1.906090927E1
1.309583500E0,-4.666775894E1,-1.151306152E0,1.573814964E1
1.319579500E0,-4.748233414E1,-1.613357544E0,1.235456944E1
1.329574500E0,-4.784580612E1,-2.258329391E0,1.019920540E1
1.339569500E0,-4.789398575E1,-3.516452789E0,9.941258430E0
1.349565500E0,-4.744178391E1,-5.530363083E0,1.155058861E1
1.359560500E0,-4.665531540E1,-7.739543915E0,1.436033821E1
1.369556500E0,-4.573395920E1,-9.270240784E0,1.716044044E1
1.379551500E0,-4.480604172E1,-9.938533783E0,1.983164215E1
1.389546500E0,-4.420620728E1,-9.860694885E0,2.131094933E1
1.399542417E0,-4.418032074E1,-9.302555084E0,2.126995468E1
1.409537417E0,-4.459457397E1,-8.491996765E0,2.051102257E1
1.419532417E0,-4.503834915E1,-7.860065460E0,1.959872437E1
1.429528417E0,-4.524124908E1,-7.365207672E0,1.887886810E1
1.439523417E0,-4.530253220E1,-7.194599152E0,1.857702446E1
1.449519417E0,-4.529545593E1,-7.165351868E0,1.851804543E1
1.459514417E0,-4.517978668E1,-7.381744385E0,1.850221062E1
1.469509417E0,-4.507868195E1,-7.882329941E0,1.846612358E1
1.479505417E0,-4.496461105E1,-8.534173965E0,1.842835426E1
1.489500417E0,-4.473657227E1,-9.488300323E0,1.858625793E1
1.499495417E0,-4.444672775E1,-1.057046509E1,1.870635414E1
1.509491417E0,-4.407082367E1,-1.164769936E1,1.896428108E1
1.519486417E0,-4.371757126E1,-1.265302277E1,1.922044373E1
1.529482417E0,-4.339573288E1,-1.341101265E1,1.939160538E1
1.539477417E0,-4.314886475E1,-1.404633331E1,1.957246971E1
1.549472417E0,-4.296253586E1,-1.444554710E1,1.967780304E1
1.559468417E0,-4.287537003E1,-1.483366203E1,1.958050346E1
1.569463417E0,-4.293744278E1,-1.513080788E1,1.893505287E1
1.579459417E0,-4.318801117E1,-1.536726379E1,1.776161957E1
1.589454417E0,-4.368302917E1,-1.543723488E1,1.621712112E1
1.599449417E0,-4.435205460E1,-1.545018578E1,1.439936447E1
1.609445417E0,-4.499186707E1,-1.513303947E1,1.232087421E1
1.619440417E0,-4.557091141E1,-1.462319946E1,1.031245327E1
1.629435417E0,-4.599432373E1,-1.413854027E1,8.537076950E0
1.639431417E0,-4.641225052E1,-1.353946686E1,6.767475128E0
1.649426417E0,-4.680619049E1,-1.299016953E1,4.447201729E0
1.659422417E0,-4.708115387E1,-1.257529831E1,2.007205963E0
1.669417417E0,-4.714416122E1,-1.231487846E1,-1.092662811E-1
1.679412417E0,-4.717846680E1,-1.213294220E1,-1.799042702E0
1.689408417E0,-4.726865005E1,-1.180915833E1,-3.100993156E0
1.699403417E0,-4.730550385E1,-1.158698463E1,-3.763314247E0
1.709399417E0,-4.738140106E1,-1.144718742E1,-3.712210655E0
1.719394417E0,-4.748366165E1,-1.131541061E1,-2.891148567E0
1.729389417E0,-4.757941818E1,-1.106812286E1,-1.524180412E0
1.739385417E0,-4.772306061E1,-1.070309830E1,-2.961463928E-1
1.749380417E0,-4.784506989E1,-1.030734634E1,2.187080383E-1
1.759376417E0,-4.792655945E1,-9.954221725E0,3.304624557E-1
1.769371417E0,-4.801570511E1,-9.665342331E0,1.296596527E-1
1.779366417E0,-4.798150635E1,-9.510042191E0,-1.212816238E-1
1.789362417E0,-4.795486450E1,-9.385871887E0,-5.709304810E-1
1.799357417E0,-4.795479202E1,-9.474657059E0,-1.101104736E0
1.809352417E0,-4.789572906E1,-9.621334076E0,-2.024096489E0
1.819348417E0,-4.783731842E1,-9.662151337E0,-3.184006691E0
1.829343417E0,-4.781062698E1,-9.640846252E0,-4.400506020E0
1.839339417E0,-4.777606964E1,-9.619325638E0,-5.290295601E0
1.849334417E0,-4.763109589E1,-9.572854996E0,-6.188815117E0
1.859329417E0,-4.750279999E1,-9.566396713E0,-7.216116905E0
1.869325417E0,-4.730600739E1,-9.449373245E0,-8.732747078E0
1.879320417E0,-4.705817032E1,-9.445060730E0,-1.042412281E1
1.889316417E0,-4.672865295E1,-9.611328125E0,-1.209401608E1
1.899311417E0,-4.632006454E1,-9.954341888E0,-1.340677929E1
1.909306417E0,-4.594046783E1,-1.048242760E1,-1.428034687E1
1.919302417E0,-4.568576431E1,-1.121109962E1,-1.494163036E1
1.929297417E0,-4.535678101E1,-1.224484825E1,-1.535197735E1
1.939292417E0,-4.497996902E1,-1.340700531E1,-1.564884663E1
1.949288417E0,-4.451453781E1,-1.467603874E1,-1.585817432E1
1.959283417E0,-4.402281189E1,-1.579706955E1,-1.586945820E1
1.969279417E0,-4.356642151E1,-1.694643974E1,-1.575625134E1
1.979274417E0,-4.319385529E1,-1.791114235E1,-1.582346439E1
1.989269417E0,-4.275706482E1,-1.885510635E1,-1.586607456E1
1.999265417E0,-4.236967468E1,-1.973330688E1,-1.591909313E1
2.009260417E0,-4.195792007E1,-2.050563431E1,-1.627283096E1
2.019256417E0,-4.152369690E1,-2.120856667E1,-1.679902267E1
2.029251417E0,-4.101125336E1,-2.182636261E1,-1.754896545E1
2.039246417E0,-4.049631500E1,-2.244626617E1,-1.815699768E1
2.049242417E0,-3.986034012E1,-2.311291122E1,-1.881333160E1
2.059237417E0,-3.923741150E1,-2.384330368E1,-1.959729004E1
2.069232417E0,-3.854113007E1,-2.452962685E1,-2.039841461E1
2.079228417E0,-3.785938263E1,-2.523210907E1,-2.094246292E1
2.089223417E0,-3.712074280E1,-2.591094589E1,-2.153326797E1
2.099219417E0,-3.640392685E1,-2.658299255E1,-2.193478775E1
2.109214417E0,-3.570040131E1,-2.736077881E1,-2.224211502E1
2.119209417E0,-3.488954163E1,-2.818369293E1,-2.253074265E1
2.129205417E0,-3.399466705E1,-2.892232895E1,-2.299002457E1
2.139200417E0,-3.317320633E1,-2.965702057E1,-2.355855942E1
2.149196417E0,-3.228698349E1,-3.041539383E1,-2.394609070E1
2.159191417E0,-3.144196320E1,-3.111534500E1,-2.440064240E1
2.169186417E0,-3.060737228E1,-3.180485153E1,-2.476282883E1
2.179182417E0,-2.986650085E1,-3.244810104E1,-2.498879242E1
2.189177417E0,-2.920381927E1,-3.303155136E1,-2.528734970E1
2.199172417E0,-2.847809219E1,-3.365450668E1,-2.534724808E1
2.209168417E0,-2.784064484E1,-3.435841751E1,-2.519650650E1
2.219163417E0,-2.728783798E1,-3.502717209E1,-2.504945374E1
2.229159417E0,-2.683749771E1,-3.561840820E1,-2.481223679E1
2.239154417E0,-2.634430504E1,-3.618952179E1,-2.456258011E1
2.249149417E0,-2.586649323E1,-3.670306015E1,-2.416844559E1
2.259145417E0,-2.534068108E1,-3.737702560E1,-2.355768204E1
2.269140417E0,-2.473596573E1,-3.804652786E1,-2.302462006E1
2.279136417E0,-2.416850090E1,-3.876986313E1,-2.253327560E1
2.289131417E0,-2.355238724E1,-3.951290512E1,-2.205715561E1
2.299126417E0,-2.295893097E1,-4.029909897E1,-2.143558121E1
2.309122417E0,-2.237386703E1,-4.096128845E1,-2.081192780E1
2.319117417E0,-2.186771202E1,-4.151461029E1,-2.026865387E1
2.329112417E0,-2.144099808E1,-4.192227173E1,-2.007714844E1
2.339108417E0,-2.091189194E1,-4.238201904E1,-1.956065750E1
2.349103417E0,-2.034603882E1,-4.278116226E1,-1.890097809E1
2.359099417E0,-1.992047501E1,-4.315352631E1,-1.867695618E1
2.369094417E0,-1.948882675E1,-4.353149796E1,-1.842530060E1
2.379089417E0,-1.914074707E1,-4.376790237E1,-1.835969925E1
2.389085417E0,-1.869817543E1,-4.411027908E1,-1.810664368E1
2.399079792E0,-1.820258904E1,-4.459262085E1,-1.751151657E1
2.409075792E0,-1.765227699E1,-4.495026398E1,-1.701232147E1
2.419070792E0,-1.700164032E1,-4.536002350E1,-1.656842804E1
2.429065792E0,-1.629754829E1,-4.579978180E1,-1.596544552E1
2.439061792E0,-1.538262939E1,-4.641429138E1,-1.459120464E1
2.449056792E0,-1.452260780E1,-4.700588226E1,-1.316136074E1
2.459051792E0,-1.387769032E1,-4.740699768E1,-1.259284687E1
2.469047792E0,-1.324860477E1,-4.763772964E1,-1.242422962E1
2.479042792E0,-1.263039970E1,-4.781869125E1,-1.248855495E1
2.489038792E0,-1.194239426E1,-4.795479584E1,-1.259553242E1
2.499033792E0,-1.131408978E1,-4.813513184E1,-1.265375042E1
2.509028792E0,-1.076652527E1,-4.827013016E1,-1.280228329E1
2.519024792E0,-1.019474030E1,-4.842445755E1,-1.291604519E1
2.529019792E0,-9.568195343E0,-4.851429367E1,-1.308583355E1
2.539014792E0,-9.013459206E0,-4.859539032E1,-1.334165859E1
2.549010792E0,-8.603372574E0,-4.854343414E1,-1.400454426E1
2.559005792E0,-8.254486084E0,-4.858657837E1,-1.461283970E1
2.569001792E0,-7.997104168E0,-4.850988388E1,-1.508920193E1
2.578996792E0,-7.818554878E0,-4.843621445E1,-1.539619350E1
2.588991792E0,-7.917702198E0,-4.846053696E1,-1.535155964E1
2.598987792E0,-8.062459946E0,-4.844738770E1,-1.515318584E1
2.608982792E0,-8.398816109E0,-4.846806335E1,-1.492934132E1
2.618978792E0,-8.788874626E0,-4.846918869E1,-1.469603062E1
2.628973792E0,-9.264952660E0,-4.839965820E1,-1.449137783E1
2.638968792E0,-9.696949005E0,-4.840045547E1,-1.436880398E1
2.648964792E0,-1.002424622E1,-4.838584900E1,-1.414193821E1
2.658959792E0,-1.034736633E1,-4.847370911E1,-1.351253223E1
2.668954792E0,-1.058268833E1,-4.867883301E1,-1.278357029E1
2.678950792E0,-1.072486401E1,-4.885812759E1,-1.222117901E1
2.688945792E0,-1.081435204E1,-4.904908752E1,-1.156487560E1
2.698941792E0,-1.086644554E1,-4.915307617E1,-1.101599026E1
2.708936792E0,-1.089286423E1,-4.922656250E1,-1.047246265E1
2.718931792E0,-1.076872540E1,-4.933461761E1,-9.981556892E0
2.728927792E0,-1.055848789E1,-4.950121307E1,-9.419903755E0
2.738922792E0,-1.033810997E1,-4.966574478E1,-8.923970222E0
2.748917792E0,-1.009469604E1,-4.990071869E1,-8.462483406E0
2.758913792E0,-9.929860115E0,-4.998601151E1,-8.323662758E0
2.768908792E0,-9.964618683E0,-4.988421631E1,-8.769619942E0
2.778904792E0,-1.010316849E1,-4.982608795E1,-9.199810982E0
2.788899792E0,-1.032783318E1,-4.977865219E1,-9.263356209E0
2.798894792E0,-1.077156448E1,-4.966954041E1,-9.103608131E0
2.808890792E0,-1.121237755E1,-4.954338455E1,-8.747233391E0
2.818885792E0,-1.171005058E1,-4.939716339E1,-8.100640297E0
2.828880792E0,-1.222928810E1,-4.937469101E1,-7.007922173E0
2.838876792E0,-1.281925297E1,-4.935817719E1,-6.022578239E0
2.848871792E0,-1.349392700E1,-4.928289413E1,-5.342722893E0
2.858867792E0,-1.420109272E1,-4.923155975E1,-4.304877281E0
2.868862792E0,-1.486804581E1,-4.911772156E1,-3.301453590E0
2.878857792E0,-1.566535378E1,-4.875363159E1,-3.051903725E0
2.888853792E0,-1.649406242E1,-4.827150345E1,-3.333880424E0
2.898848792E0,-1.737864685E1,-4.775481415E1,-3.948809624E0
2.908844792E0,-1.821747017E1,-4.736101532E1,-4.581913948E0
2.918839792E0,-1.895120430E1,-4.703587723E1,-4.912873268E0
2.928834792E0,-1.946235085E1,-4.669520950E1,-5.041573524E0
2.938830792E0,-1.980316925E1,-4.653075790E1,-5.124899864E0
2.948825792E0,-1.998849106E1,-4.648603821E1,-5.203970909E0
2.958820792E0,-2.005197525E1,-4.650194168E1,-5.250905037E0
2.968816792E0,-2.006417274E1,-4.638496399E1,-5.476012230E0
2.978811792E0,-2.001274681E1,-4.635946274E1,-5.571660042E0
2.988807792E0,-2.000202942E1,-4.634946442E1,-5.694647789E0
2.998802792E0,-2.006530380E1,-4.632379532E1,-5.922810555E0
3.008797792E0,-2.021190262E1,-4.619908905E1,-6.022788048E0
3.018793792E0,-2.049786186E1,-4.596650696E1,-6.074460030E0
3.028788792E0,-2.087607574E1,-4.572966385E1,-6.064223289E0
3.038783792E0,-2.141321945E1,-4.552515030E1,-5.996327400E0
3.048779792E0,-2.196205139E1,-4.528785706E1,-5.705380440E0
3.058774792E0,-2.247794724E1,-4.504984283E1,-5.434481621E0
3.068770792E0,-2.309939194E1,-4.473389435E1,-5.171076775E0
3.078765792E0,-2.368549156E1,-4.444129944E1,-4.931071281E0
3.088760792E0,-2.420768166E1,-4.414760590E1,-4.839348793E0
3.098756792E0,-2.460885429E1,-4.392553711E1,-4.718634605E0
3.108751792E0,-2.488215446E1,-4.383998871E1,-4.761061668E0
3.118746792E0,-2.498522949E1,-4.381015015E1,-4.839253426E0
3.128742792E0,-2.505961609E1,-4.370944977E1,-5.039679527E0
3.138737792E0,-2.513188553E1,-4.361577606E1,-5.217223167E0
3.148733792E0,-2.515262985E1,-4.359217072E1,-5.385985374E0
3.158728792E0,-2.526722336E1,-4.357184982E1,-5.376456261E0
3.168723792E0,-2.538966751E1,-4.352107239E1,-5.217230797E0
3.178719792E0,-2.546280670E1,-4.347484207E1,-5.098952293E0
3.188714792E0,-2.555661011E1,-4.339851379E1,-4.821490288E0
3.198709792E0,-2.560740852E1,-4.340024948E1,-4.442572594E0
3.208705792E0,-2.568051910E1,-4.336331177E1,-4.115077019E0
3.218700792E0,-2.572700119E1,-4.341685486E1,-3.654143333E0
3.228696792E0,-2.570089912E1,-4.346441650E1,-3.161931038E0
3.238691792E0,-2.568255424E1,-4.342276001E1,-2.688719749E0
3.248686792E0,-2.577328491E1,-4.333475494E1,-2.196137428E0
3.258682792E0,-2.584057617E1,-4.322479248E1,-1.628844261E0
3.268677792E0,-2.601248741E1,-4.311775970E1,-9.364223480E-1
3.278672792E0,-2.617893600E1,-4.301120377E1,-2.314205170E-1
3.288668792E0,-2.640476418E1,-4.283005142E1,3.878145218E-1
3.298663792E0,-2.694934845E1,-4.237067032E1,1.171521187E0
3.308659792E0,-2.743346214E1,-4.201449966E1,1.259799957E0
3.318654792E0,-2.798871613E1,-4.156882858E1,1.201909065E0
3.328649792E0,-2.862758636E1,-4.105045319E1,1.157433510E0
3.338645792E0,-2.936169815E1,-4.051480103E1,9.523153305E-1
3.348640792E0,-3.004401779E1,-3.996455765E1,7.581310272E-1
3.358635792E0,-3.071206284E1,-3.935328293E1,4.395265579E-1
3.368631792E0,-3.134237289E1,-3.882426453E1,1.750993729E-1
3.378626792E0,-3.187485123E1,-3.846120834E1,-9.360218048E-2
3.388621792E0,-3.234196091E1,-3.802740860E1,-5.483160019E-1
3.398617792E0,-3.278693771E1,-3.752394867E1,-1.075532913E0
3.408613375E0,-3.315090942E1,-3.705226517E1,-1.558598518E0
3.418609375E0,-3.355868149E1,-3.661301422E1,-1.984711647E0
