"Time (s)","X (µT)","Y (µT)","Z (µT)"
4.612675000E-2,9.432601929E-2,-1.570005989E1,-5.000418854E1
5.612175000E-2,-2.277488708E-1,-1.544821358E1,-5.003530121E1
6.611675000E-2,-5.922889709E-1,-1.520443344E1,-5.007257462E1
7.611075000E-2,-1.641567230E0,-1.455178070E1,-5.004090881E1
8.610575000E-2,-2.556857109E0,-1.396511841E1,-4.987096405E1
9.609975000E-2,-3.582131386E0,-1.335142326E1,-4.978470612E1
1.060947500E-1,-4.800429344E0,-1.249160576E1,-4.998260117E1
1.160897500E-1,-6.112327576E0,-1.158419418E1,-5.004929352E1
1.260880833E-1,-7.592238426E0,-1.053320694E1,-5.014390182E1
1.360830833E-1,-8.991486549E0,-9.525724411E0,-5.006684494E1
1.460770833E-1,-1.026277542E1,-8.707780838E0,-4.980181122E1
1.560720833E-1,-1.139630318E1,-7.645393372E0,-4.966902924E1
1.660670833E-1,-1.222980595E1,-6.484167099E0,-4.949344635E1
1.760610833E-1,-1.278137684E1,-5.132263184E0,-4.942738342E1
1.860560833E-1,-1.332524395E1,-3.531555176E0,-4.950625610E1
1.960510833E-1,-1.394748878E1,-1.756660461E0,-4.961402512E1
2.060450833E-1,-1.472418976E1,-1.371822357E-1,-4.932174683E1
2.160400833E-1,-1.571671295E1,1.457025528E0,-4.902627945E1
2.260340833E-1,-1.677119446E1,2.954648972E0,-4.889435196E1
2.360290833E-1,-1.786387634E1,4.289041519E0,-4.852150726E1
2.460240833E-1,-1.890609360E1,5.320516586E0,-4.813517761E1
2.560180833E-1,-1.983275795E1,6.138936996E0,-4.764827347E1
2.660130833E-1,-2.051155472E1,6.712491989E0,-4.718587494E1
2.760070833E-1,-2.093384933E1,7.227193832E0,-4.703078079E1
2.860020833E-1,-2.100786591E1,7.589338303E0,-4.704270554E1
2.959970833E-1,-2.069056702E1,7.930627823E0,-4.713088226E1
3.059910833E-1,-2.008414268E1,8.197843552E0,-4.719845200E1
3.159860833E-1,-1.934115601E1,8.324522018E0,-4.750624847E1
3.259810833E-1,-1.846268272E1,8.401872635E0,-4.811883163E1
3.359750833E-1,-1.757881355E1,8.124559402E0,-4.875898743E1
3.459700833E-1,-1.686460304E1,7.606744766E0,-4.907435608E1
3.559640833E-1,-1.641458702E1,6.822072983E0,-4.912199783E1
3.659590833E-1,-1.629125595E1,6.006280899E0,-4.924246979E1
3.759540833E-1,-1.640180779E1,5.195016861E0,-4.952236557E1
3.859480833E-1,-1.653439713E1,4.458681107E0,-4.961137009E1
3.959430833E-1,-1.686412621E1,3.838869095E0,-4.955216980E1
4.059380833E-1,-1.736821365E1,3.414617538E0,-4.930158615E1
4.159320833E-1,-1.821873283E1,3.216650009E0,-4.894428253E1
4.259270833E-1,-1.919570732E1,3.272851944E0,-4.846384811E1
4.359210833E-1,-2.009944534E1,3.562726974E0,-4.816096878E1
4.459160833E-1,-2.070347214E1,3.898668289E0,-4.792902756E1
4.559110833E-1,-2.106128120E1,4.269765854E0,-4.776218414E1
4.659050833E-1,-2.144253540E1,4.604566574E0,-4.758630753E1
4.759000833E-1,-2.193391037E1,4.758340836E0,-4.740209198E1
4.858940833E-1,-2.249793434E1,4.958784103E0,-4.710089874E1
4.958890833E-1,-2.325106812E1,4.940923691E0,-4.668037033E1
5.058840833E-1,-2.419041443E1,4.804040909E0,-4.618460846E1
5.158780833E-1,-2.534324265E1,4.652498245E0,-4.534235382E1
5.258730833E-1,-2.675111771E1,4.515512466E0,-4.431180954E1
5.358680833E-1,-2.827401733E1,4.590463638E0,-4.327191544E1
5.458620833E-1,-2.969730186E1,4.843301773E0,-4.226511383E1
5.558570833E-1,-3.109007263E1,5.298620224E0,-4.099056244E1
5.658510833E-1,-3.256777191E1,6.111410141E0,-3.948406982E1
5.758460833E-1,-3.411415100E1,6.969018936E0,-3.789671707E1
5.858410833E-1,-3.581264877E1,8.034399033E0,-3.596630478E1
5.958350833E-1,-3.754570007E1,9.126703262E0,-3.381391907E1
6.058300833E-1,-3.926989365E1,1.025524330E1,-3.144132233E1
6.158250833E-1,-4.085855865E1,1.143495750E1,-2.877209091E1
6.258190833E-1,-4.231444550E1,1.285576820E1,-2.562377548E1
6.358140833E-1,-4.353786469E1,1.447895622E1,-2.218938446E1
6.458080833E-1,-4.436265182E1,1.638367653E1,-1.869786072E1
6.558030833E-1,-4.484094238E1,1.863272285E1,-1.553597260E1
6.657980833E-1,-4.477003479E1,2.119729042E1,-1.264464188E1
6.757920833E-1,-4.439978790E1,2.394551277E1,-1.048305893E1
6.857870833E-1,-4.363731384E1,2.655468178E1,-8.263637543E0
6.957820833E-1,-4.261086273E1,2.900444221E1,-5.943834305E0
7.057760833E-1,-4.136140442E1,3.143901253E1,-3.754047394E0
7.157710833E-1,-3.984901810E1,3.374137115E1,-1.903516769E0
7.257650833E-1,-3.821992493E1,3.596782684E1,-5.983858109E-1
7.357600833E-1,-3.648777771E1,3.796085358E1,2.498121262E-1
7.457550833E-1,-3.478783417E1,3.976130676E1,6.067743301E-1
7.557490833E-1,-3.319054794E1,4.122521973E1,6.632308960E-1
7.657440833E-1,-3.179338264E1,4.235166168E1,5.416488647E-1
7.757390833E-1,-3.063478279E1,4.330849457E1,8.274078369E-2
7.857330833E-1,-2.983332062E1,4.410830688E1,-7.211132050E-1
7.957280833E-1,-2.927318573E1,4.456780243E1,-1.480458260E0
8.057230833E-1,-2.883735085E1,4.475214386E1,-1.972826004E0
8.157170833E-1,-2.866658783E1,4.481319427E1,-2.280726433E0
8.257120833E-1,-2.876602936E1,4.485094452E1,-2.817104340E0
8.357060833E-1,-2.888333130E1,4.481912994E1,-3.349529266E0
8.457010833E-1,-2.899990463E1,4.470851135E1,-3.736694336E0
8.556960833E-1,-2.928349686E1,4.443186951E1,-3.979864120E0
8.656900833E-1,-2.961368370E1,4.415153503E1,-4.290742874E0
8.756850833E-1,-3.008829880E1,4.372798157E1,-4.559881210E0
8.856800833E-1,-3.056417656E1,4.340177917E1,-4.651697159E0
8.956740833E-1,-3.093152618E1,4.310686493E1,-4.416151047E0
9.056690833E-1,-3.107586479E1,4.297161865E1,-3.532793045E0
9.156640833E-1,-3.122225189E1,4.286827850E1,-2.438741684E0
9.256580833E-1,-3.143794823E1,4.275446320E1,-1.770160675E0
9.356530833E-1,-3.167115593E1,4.258206177E1,-1.204169273E0
9.456470833E-1,-3.196768188E1,4.232509613E1,-6.052751541E-1
9.556420833E-1,-3.245712280E1,4.188938141E1,3.906059265E-2
9.656370833E-1,-3.289366913E1,4.136156464E1,5.091104507E-1
9.756310833E-1,-3.333380890E1,4.095149231E1,9.527082443E-1
9.856260833E-1,-3.364022064E1,4.057162476E1,1.417913437E0
9.956210833E-1,-3.391942596E1,4.025416565E1,1.820147514E0
1.005615083E0,-3.423178482E1,3.993595123E1,2.221706390E0
1.015610083E0,-3.464504242E1,3.961802673E1,2.621818542E0
1.025605083E0,-3.505142975E1,3.917578888E1,2.901945114E0
1.035599083E0,-3.551290131E1,3.863775635E1,3.216791153E0
1.045594083E0,-3.600994873E1,3.803288269E1,3.439159393E0
1.055588083E0,-3.652515411E1,3.742228699E1,3.694231033E0
1.065583083E0,-3.697335052E1,3.683976746E1,3.939452171E0
1.075578083E0,-3.732396698E1,3.642089844E1,4.129364014E0
1.085572083E0,-3.766307831E1,3.603376007E1,4.243747711E0
1.095567083E0,-3.798971558E1,3.579531860E1,4.190054893E0
1.105562083E0,-3.819091034E1,3.551697540E1,4.137386322E0
1.115556083E0,-3.831422424E1,3.532711792E1,4.178908348E0
1.125547500E0,-3.839913177E1,3.529442596E1,4.215756416E0
1.135542500E0,-3.843329620E1,3.522322845E1,4.224060059E0
1.145536500E0,-3.851341629E1,3.514090729E1,4.111794472E0
1.155531500E0,-3.854714584E1,3.510050201E1,3.870048523E0
1.165526500E0,-3.856396103E1,3.509481812E1,3.436082840E0
1.175520500E0,-3.857901764E1,3.518724060E1,3.031311035E0
1.185515500E0,-3.852735901E1,3.536428833E1,2.584154129E0
1.195509500E0,-3.839859772E1,3.555051422E1,2.174066544E0
1.205504500E0,-3.832576370E1,3.560810089E1,1.780380249E0
1.215499500E0,-3.833761597E1,3.550190735E1,1.505248070E0
1.225493500E0,-3.842847443E1,3.536423492E1,1.237877846E0
1.235488500E0,-3.858944702E1,3.523177338E1,1.135157585E0
1.245483500E0,-3.868702698E1,3.520138550E1,8.953313828E-1
1.255477500E0,-3.868534088E1,3.533394623E1,5.674371719E-1
1.265472500E0,-3.862545013E1,3.556095123E1,7.060623169E-2
1.275467500E0,-3.839374542E1,3.580792236E1,-3.986806870E-1
1.285461500E0,-3.796488571E1,3.602209473E1,-4.302453995E-1
1.295456500E0,-3.744354248E1,3.629061890E1,-3.874759674E-1
1.305451500E0,-3.709831619E1,3.675254059E1,-1.322341919E0
1.315445500E0,-3.681121445E1,3.722344971E1,-2.829355240E0
1.325440500E0,-3.662765503E1,3.770390320E1,-4.399585724E0
1.335435500E0,-3.635793304E1,3.811395264E1,-5.530147552E0
1.345429500E0,-3.598470306E1,3.853649139E1,-6.257312775E0
1.355424500E0,-3.554799652E1,3.896891022E1,-6.894874573E0
1.365418500E0,-3.489235687E1,3.963108826E1,-7.533777237E0
1.375413500E0,-3.408591461E1,4.029658508E1,-7.766494751E0
1.385408500E0,-3.313654709E1,4.119032288E1,-7.502845764E0
1.395402500E0,-3.198468590E1,4.231280518E1,-6.578456879E0
1.405397500E0,-3.050603676E1,4.367877960E1,-5.224893570E0
1.415392500E0,-2.848736000E1,4.519586945E1,-3.703300476E0
1.425386500E0,-2.584616661E1,4.694976044E1,-2.330188751E0
1.435381500E0,-2.269292831E1,4.867881775E1,-1.032945633E0
1.445376500E0,-1.912714767E1,5.027989960E1,-3.479099274E-2
1.455370500E0,-1.534263325E1,5.165695953E1,3.823261261E-1
1.465365500E0,-1.141919041E1,5.274948120E1,-2.429008484E-2
1.475360500E0,-7.545336723E0,5.341989899E1,-9.280643463E-1
1.485354500E0,-3.837382317E0,5.372366333E1,-1.948959351E0
1.495349500E0,-3.348178864E-1,5.394733429E1,-2.856563568E0
1.505344500E0,2.863887787E0,5.377455902E1,-3.397447586E0
1.515338500E0,5.850044250E0,5.344092560E1,-3.828010559E0
1.525333500E0,8.679733276E0,5.290270996E1,-4.228321075E0
1.535328500E0,1.130657578E1,5.228438568E1,-4.990533829E0
1.545322500E0,1.364223862E1,5.160515594E1,-5.996364594E0
1.555317500E0,1.576196098E1,5.081204987E1,-7.065856934E0
1.565311500E0,1.757895851E1,5.000754547E1,-8.169534683E0
1.575306500E0,1.925854874E1,4.912124634E1,-9.461036682E0
1.585301500E0,2.061998749E1,4.828492737E1,-1.093947601E1
1.595295500E0,2.154190063E1,4.736151123E1,-1.252706528E1
1.605290500E0,2.147897720E1,4.686135864E1,-1.424264145E1
1.615285500E0,2.012595749E1,4.711359406E1,-1.588237381E1
1.625279500E0,1.822992706E1,4.783237457E1,-1.683062744E1
1.635274500E0,1.676636887E1,4.855139160E1,-1.686161232E1
1.645269500E0,1.624260902E1,4.904374695E1,-1.617092323E1
1.655263500E0,1.631019211E1,4.931724548E1,-1.510803223E1
1.665258500E0,1.672431183E1,4.946240997E1,-1.372101974E1
1.675253500E0,1.726012611E1,4.959577942E1,-1.198117065E1
1.685247500E0,1.764610672E1,4.977369690E1,-9.997020721E0
1.695242500E0,1.773647499E1,4.999100494E1,-7.793777466E0
1.705237500E0,1.766622162E1,5.022052765E1,-5.507122040E0
1.715231500E0,1.749095726E1,5.038038635E1,-3.455295563E0
1.725226500E0,1.738542557E1,5.048941803E1,-1.707287788E0
1.735221500E0,1.737065125E1,5.050266266E1,-1.330242157E-1
1.745215500E0,1.744864273E1,5.045178986E1,1.248955727E0
1.755210500E0,1.760458374E1,5.022493744E1,2.556396484E0
1.765205500E0,1.782082748E1,4.989435577E1,4.011951447E0
1.775199500E0,1.798635674E1,4.965297699E1,5.571904182E0
1.785194500E0,1.807786369E1,4.927383423E1,7.295923233E0
1.795188500E0,1.806046295E1,4.897402954E1,8.832981110E0
1.805183500E0,1.792315292E1,4.880323792E1,1.008896637E1
1.815178500E0,1.762216568E1,4.876667023E1,1.098301888E1
1.825172500E0,1.726640892E1,4.873661041E1,1.179804420E1
1.835167500E0,1.692049599E1,4.869409943E1,1.246741104E1
1.845162500E0,1.673563576E1,4.854287720E1,1.323781013E1
1.855156500E0,1.676752281E1,4.828696442E1,1.386284161E1
1.865151500E0,1.692191124E1,4.793923950E1,1.447432613E1
1.875146500E0,1.711731148E1,4.770630646E1,1.497808933E1
1.885140500E0,1.742142677E1,4.749551392E1,1.521934795E1
1.895135500E0,1.779520226E1,4.726469421E1,1.527874565E1
1.905130500E0,1.831872559E1,4.717579651E1,1.490946388E1
1.915124500E0,1.869438553E1,4.716178131E1,1.423693943E1
1.925119500E0,1.909598923E1,4.726260376E1,1.336264992E1
1.935114500E0,1.923080063E1,4.744454193E1,1.261829758E1
1.945108500E0,1.926194382E1,4.771681213E1,1.194192886E1
1.955103500E0,1.914303589E1,4.801645660E1,1.136359119E1
1.965098500E0,1.896430588E1,4.825428009E1,1.099864960E1
1.975092500E0,1.887092972E1,4.842465210E1,1.066304874E1
1.985087500E0,1.886602402E1,4.854767609E1,1.004196072E1
1.995082500E0,1.903072357E1,4.869504547E1,9.336018562E0
2.005076500E0,1.925862122E1,4.875816345E1,8.528095245E0
2.015071500E0,1.970033264E1,4.869450378E1,7.772089005E0
2.025066500E0,2.018101501E1,4.869177246E1,7.046010494E0
2.035060500E0,2.063088226E1,4.869147491E1,6.319738388E0
2.045055500E0,2.108632278E1,4.859867096E1,5.449265480E0
2.055050500E0,2.152647018E1,4.846052551E1,4.665196419E0
2.065044500E0,2.196623230E1,4.838551331E1,4.088604927E0
2.075039500E0,2.236606216E1,4.826763916E1,3.707884789E0
2.085034500E0,2.279537201E1,4.812271881E1,3.550995827E0
2.095028500E0,2.319948578E1,4.796009064E1,3.574284554E0
2.105023500E0,2.353549194E1,4.788938141E1,3.654312134E0
2.115018500E0,2.396621704E1,4.768347168E1,4.247039795E0
2.125011750E0,2.405917358E1,4.754975891E1,4.501213074E0
2.135006750E0,2.415197754E1,4.753085327E1,4.751091003E0
2.145000750E0,2.415565491E1,4.750211334E1,4.917745590E0
2.154995750E0,2.418928528E1,4.751038361E1,5.030039787E0
2.164990750E0,2.414030075E1,4.745710754E1,5.255223274E0
2.174984750E0,2.411688614E1,4.741369629E1,5.717452049E0
2.184979750E0,2.407659149E1,4.731357574E1,6.329616070E0
2.194974750E0,2.407848358E1,4.731064606E1,6.933901310E0
2.204968750E0,2.419591141E1,4.713081360E1,7.570733070E0
2.214963750E0,2.427873611E1,4.695429993E1,8.190291405E0
2.224958750E0,2.449345779E1,4.675746155E1,8.567095757E0
2.234952750E0,2.478714752E1,4.658950806E1,8.605131149E0
2.244947750E0,2.507538605E1,4.624227142E1,8.514905930E0
2.254942750E0,2.537193298E1,4.600350952E1,8.144817352E0
2.264936750E0,2.549681091E1,4.593395233E1,7.680732250E0
2.274931750E0,2.558742142E1,4.592770386E1,7.415157318E0
2.284926750E0,2.569342041E1,4.597059631E1,7.194618702E0
2.294920750E0,2.578775406E1,4.592352295E1,7.016916752E0
2.304915750E0,2.594071579E1,4.583372498E1,6.823123455E0
2.314910750E0,2.614457321E1,4.565956879E1,6.609467983E0
2.324904750E0,2.636423492E1,4.549461365E1,6.619449615E0
2.334899750E0,2.650089645E1,4.520787048E1,6.964845181E0
2.344894750E0,2.667222214E1,4.490061951E1,7.448504448E0
2.354888750E0,2.706998062E1,4.473144531E1,7.174265385E0
2.364883750E0,2.804388809E1,4.421516418E1,5.671328068E0
2.374878750E0,2.927238083E1,4.356564331E1,3.539875031E0
2.384872750E0,3.008295822E1,4.312102509E1,1.894390106E0
2.394867750E0,3.024276733E1,4.306658173E1,8.299360275E-1
2.404861750E0,3.002667236E1,4.325794220E1,2.210073471E-1
2.414856750E0,2.974925232E1,4.344802856E1,1.039505005E-1
2.424851750E0,2.945608902E1,4.364988708E1,3.708248138E-1
2.434845750E0,2.908327103E1,4.390016937E1,7.983512878E-1
2.444840750E0,2.857774734E1,4.421968842E1,1.033468246E0
2.454835750E0,2.795443726E1,4.473892212E1,8.349618912E-1
2.464829750E0,2.724908829E1,4.528469086E1,3.386497498E-1
2.474824750E0,2.656498718E1,4.586066437E1,-5.072441101E-1
2.484819750E0,2.599280167E1,4.630807495E1,-1.325492859E0
2.494813750E0,2.557845688E1,4.661127472E1,-1.953533173E0
2.504808750E0,2.522172165E1,4.687985992E1,-2.616556168E0
2.514803750E0,2.485570908E1,4.714715576E1,-3.110351562E0
2.524797750E0,2.454250717E1,4.746283722E1,-3.528516769E0
2.534792750E0,2.422510147E1,4.775601196E1,-3.769712448E0
2.544787750E0,2.384700012E1,4.794613647E1,-3.853586197E0
2.554781750E0,2.357749176E1,4.818292236E1,-3.779050827E0
2.564776750E0,2.328878784E1,4.839970398E1,-3.704282761E0
2.574771750E0,2.296025848E1,4.865143585E1,-3.558015823E0
2.584765750E0,2.273734665E1,4.877645111E1,-3.218051910E0
2.594760750E0,2.260773087E1,4.882939148E1,-2.747989655E0
2.604755750E0,2.252368164E1,4.883727264E1,-2.187117577E0
2.614749750E0,2.236455536E1,4.887694550E1,-1.383771896E0
2.624744750E0,2.216240311E1,4.900039673E1,-3.779792786E-1
2.634738750E0,2.179968262E1,4.909446716E1,7.311267853E-1
2.644733750E0,2.141575241E1,4.921644592E1,1.881818771E0
2.654728750E0,2.080757904E1,4.946109772E1,3.101731300E0
2.664722750E0,2.004019928E1,4.972950745E1,4.293401718E0
2.674717750E0,1.935991669E1,4.961334991E1,6.292655945E0
2.684712750E0,1.849285126E1,4.971814728E1,7.352336884E0
2.694706750E0,1.762097168E1,4.995565033E1,8.099304199E0
2.704701750E0,1.665909576E1,5.021384430E1,8.500232697E0
2.714696750E0,1.574890137E1,5.051192474E1,8.794094086E0
2.724690750E0,1.487639427E1,5.081467438E1,8.703728676E0
2.734685750E0,1.401484299E1,5.103052521E1,8.383660316E0
2.744680750E0,1.315732574E1,5.142441559E1,7.699598312E0
2.754674750E0,1.234682655E1,5.173494720E1,6.859237671E0
2.764669750E0,1.157309151E1,5.200368500E1,5.801079750E0
2.774664750E0,1.079235458E1,5.238820648E1,4.652738571E0
2.784658750E0,1.006671333E1,5.261703491E1,3.648921967E0
2.794653750E0,9.422502518E0,5.278873444E1,2.832348824E0
2.804647750E0,9.145374298E0,5.284530640E1,2.220613480E0
2.814642750E0,9.662797928E0,5.264532471E1,1.690547943E0
2.824637750E0,1.104338264E1,5.228139496E1,1.692892075E0
2.834631750E0,1.282621193E1,5.168627930E1,2.504224777E0
2.844626750E0,1.406426239E1,5.131716919E1,3.320550919E0
2.854621750E0,1.462226868E1,5.120732880E1,3.546444893E0
2.864615750E0,1.469172478E1,5.128392029E1,3.217138290E0
2.874610750E0,1.458888435E1,5.142466736E1,2.466392517E0
2.884605750E0,1.444392776E1,5.148804474E1,1.780147552E0
2.894599750E0,1.429932976E1,5.168436432E1,1.218167305E0
2.904594750E0,1.420047379E1,5.178376007E1,7.457742691E-1
2.914588750E0,1.415905380E1,5.180747223E1,3.875379562E-1
2.924583750E0,1.419883156E1,5.192916870E1,-1.067733765E-1
2.934578750E0,1.430716324E1,5.187782288E1,-5.215702057E-1
2.944572750E0,1.439711571E1,5.180051422E1,-8.008432388E-1
2.954567750E0,1.460331154E1,5.174633026E1,-8.012084961E-1
2.964562750E0,1.484928322E1,5.177650452E1,-8.209714890E-1
2.974556750E0,1.509395599E1,5.177006531E1,-8.305587769E-1
2.984551750E0,1.544563866E1,5.163372803E1,-7.030162811E-1
2.994546750E0,1.579056549E1,5.154886627E1,-5.738983154E-1
3.004540750E0,1.611895370E1,5.145281219E1,-4.994678497E-1
3.014535750E0,1.646590805E1,5.137746429E1,-4.547710419E-1
3.024530750E0,1.677734184E1,5.121648407E1,-4.777450562E-1
3.034524750E0,1.711348724E1,5.115225220E1,-3.956899643E-1
3.044519750E0,1.748554993E1,5.100403595E1,-3.028450012E-1
3.054513750E0,1.785478020E1,5.083818054E1,-1.857738495E-1
3.064508750E0,1.821196175E1,5.067861938E1,-2.986717224E-2
3.074503750E0,1.855408478E1,5.051021576E1,4.304590225E-1
3.084497750E0,1.890676117E1,5.033174133E1,9.211540222E-1
3.094492750E0,1.922576141E1,5.019599152E1,1.604557991E0
3.104487750E0,1.953050613E1,5.001425934E1,2.308815956E0
3.114481750E0,1.983716202E1,4.976006317E1,3.175981522E0
3.124476833E0,2.010980606E1,4.956389618E1,4.038250923E0
3.134471833E0,2.042274094E1,4.926694489E1,5.108472824E0
3.144465833E0,2.072334671E1,4.895668793E1,6.231768131E0
3.154460833E0,2.105587387E1,4.863990021E1,7.381356716E0
3.164455833E0,2.135686111E1,4.832024384E1,8.373193741E0
3.174449833E0,2.167901993E1,4.802778625E1,8.979586601E0
3.184444833E0,2.204729843E1,4.782607269E1,9.136245728E0
3.194438833E0,2.247458267E1,4.767791748E1,8.838310242E0
3.204433833E0,2.295613480E1,4.752532196E1,8.265481949E0
3.214428833E0,2.342361832E1,4.737715149E1,7.655713558E0
3.224422833E0,2.395911789E1,4.716510773E1,7.049086571E0
3.234417833E0,2.448061752E1,4.682944489E1,6.766019344E0
3.244412833E0,2.489511871E1,4.644287109E1,7.206126690E0
3.254406833E0,2.526909256E1,4.588921356E1,8.664085388E0
3.264401833E0,2.556324005E1,4.526704407E1,1.019878674E1
3.274395833E0,2.578845215E1,4.487242126E1,1.113757133E1
3.284390833E0,2.645857239E1,4.432599640E1,1.127139664E1
3.294385833E0,2.788693619E1,4.350413513E1,1.014330864E1
3.304379833E0,2.968345261E1,4.249636841E1,8.403371811E0
3.314374833E0,3.057753754E1,4.207706451E1,7.391995430E0
3.324369833E0,3.018739319E1,4.248056793E1,7.393301964E0
3.334363833E0,2.922738266E1,4.314836884E1,7.920719624E0
3.344358833E0,2.853333282E1,4.342896271E1,8.495579720E0
3.354352833E0,2.805352402E1,4.358591461E1,9.018360138E0
3.364347833E0,2.762127304E1,4.385944366E1,9.193313599E0
3.374342833E0,2.705119705E1,4.437814331E1,8.727522850E0
3.384336833E0,2.635205460E1,4.506787872E1,7.660807610E0
3.394331833E0,2.559681702E1,4.582814789E1,6.105473042E0
3.404326833E0,2.492493439E1,4.649678040E1,4.316246033E0
3.414320833E0,2.430295563E1,4.713748169E1,2.622815132E0
3.424315833E0,2.382711792E1,4.750144196E1,1.406945229E0
3.434309833E0,2.341941452E1,4.777340698E1,5.507164001E-1
3.444304833E0,2.311444473E1,4.805957031E1,5.430889130E-2
3.454299833E0,2.272612381E1,4.827519226E1,-2.672834396E-1
3.464293833E0,2.241545868E1,4.837146759E1,-4.160337448E-1
3.474288833E0,2.209425735E1,4.857339478E1,-5.036163330E-1
3.484283833E0,2.174124908E1,4.883238983E1,-6.400175095E-1
3.494277833E0,2.142707825E1,4.902285004E1,-6.234617233E-1
3.504272833E0,2.113875198E1,4.911991882E1,-3.525409698E-1
