"Time (s)","X (rad/s)","Y (rad/s)","Z (rad/s)"
1.324416666E-2,-4.946794510E-1,6.623880267E-1,-3.322547674E-2
2.326316667E-2,-5.348185301E-1,7.450233698E-1,-1.191227362E-1
3.328216667E-2,-4.993902147E-1,7.666503191E-1,-2.369231433E-1
4.330216667E-2,-4.313267469E-1,7.078691721E-1,-3.353697062E-1
5.332116667E-2,-3.880306780E-1,5.528873205E-1,-3.778244853E-1
6.334016667E-2,-4.140260220E-1,3.809687495E-1,-3.208270371E-1
7.336016667E-2,-4.939724803E-1,2.529979944E-1,-1.878940016E-1
8.337916667E-2,-6.093729734E-1,1.442751884E-1,1.662698761E-2
9.339816667E-2,-7.251358032E-1,6.103969365E-2,2.255999148E-1
1.034181667E-1,-8.222232461E-1,1.013146900E-2,3.658483028E-1
1.134371667E-1,-9.026775956E-1,7.653986104E-4,4.071422219E-1
1.234561667E-1,-9.721412063E-1,9.798189998E-2,3.448974192E-1
1.334751667E-1,-1.038528085E0,2.514097989E-1,2.511269748E-1
1.434951667E-1,-1.082462668E0,3.719373941E-1,1.799727231E-1
1.535141667E-1,-1.085791111E0,4.910403490E-1,1.549291462E-1
1.635331667E-1,-1.090399981E0,5.121542811E-1,1.720053554E-1
1.735531667E-1,-1.084101081E0,5.885811448E-1,2.417809814E-1
1.835721667E-1,-1.068141341E0,8.660733104E-1,3.818231523E-1
1.935911667E-1,-1.110397220E0,1.177780032E0,6.114605665E-1
2.036111667E-1,-1.298391581E0,1.290749192E0,8.159505725E-1
2.136301667E-1,-1.639197469E0,5.558769703E-1,9.179107547E-1
2.236491667E-1,-2.015668869E0,-3.541417718E-1,9.074609280E-1
2.336681667E-1,-2.343372107E0,-9.990577102E-1,7.766067982E-1
2.436881667E-1,-2.511451960E0,-1.319841981E0,4.937539399E-1
2.537071667E-1,-2.424601555E0,-1.271786809E0,1.037622318E-1
2.637261667E-1,-2.090907097E0,-8.045618534E-1,-2.748619020E-1
2.737461667E-1,-1.590984344E0,-2.944781482E-1,-6.865336299E-1
2.837651667E-1,-1.059508085E0,-7.706703991E-2,-1.119850993E0
2.937841667E-1,-5.838230848E-1,-2.703166604E-1,-1.340142012E0
3.038041667E-1,-1.914210171E-1,-8.041349649E-1,-1.239120364E0
3.138231667E-1,1.210601777E-1,-1.166276693E0,-7.859973907E-1
3.238421667E-1,3.152740002E-1,-8.984263539E-1,-3.339163028E-3
3.338611667E-1,4.011233747E-1,-2.666768730E-1,6.491262317E-1
3.438811667E-1,3.406480253E-1,4.358403087E-1,9.828756452E-1
3.539001667E-1,1.924891919E-1,1.041971207E0,9.107868075E-1
3.639191667E-1,8.575775474E-2,8.409786224E-1,4.953162968E-1
3.739391667E-1,8.623712510E-2,6.330294013E-1,2.181319892E-2
3.839581667E-1,1.522277892E-1,1.679750800E0,-2.640035748E-1
3.939771667E-1,1.933581680E-1,2.741851807E0,-2.414215505E-1
4.039971667E-1,2.363861650E-1,2.865190506E0,7.836871594E-2
4.140161667E-1,2.271199673E-1,2.244258881E0,4.511561394E-1
4.240351667E-1,2.692404091E-1,1.154661298E0,7.357140779E-1
4.340551667E-1,1.843296736E-2,1.538767964E-1,1.015644550E0
4.440741667E-1,-1.384321570E0,9.882329702E-1,1.362096190E0
4.540931667E-1,-2.591111183E0,9.428223372E-1,1.411441922E0
4.641121667E-1,-2.907768011E0,-1.642872766E-2,1.131568074E0
4.741321667E-1,-2.801752567E0,-9.891028702E-2,5.816653371E-1
4.841511667E-1,-2.262756109E0,4.035636187E-1,1.532651484E-1
4.941701667E-1,-1.533168316E0,6.731191874E-1,1.213641986E-1
5.041901667E-1,-8.903381228E-1,6.714078188E-1,4.190038517E-2
5.142091667E-1,-4.812824428E-1,1.175223351E0,-9.813208878E-2
5.242281667E-1,-4.526668787E-1,2.528147221E0,3.137203166E-3
5.342481667E-1,-5.411850214E-1,3.959990263E0,1.030323803E-1
5.442671667E-1,-3.847598433E-1,4.789155483E0,1.599815786E-1
5.542861667E-1,-5.554455519E-1,4.217896938E0,3.690357208E-1
5.643061667E-1,-1.571188569E0,1.694912434E0,6.180236936E-1
5.743251667E-1,-2.341462374E0,-7.730417848E-1,1.084965244E-1
5.843441667E-1,-2.488203049E0,-7.048923969E-1,8.315857500E-2
5.943631667E-1,-2.435979128E0,-8.065841198E-1,3.218214810E-1
6.043831667E-1,-2.237431765E0,-7.145287991E-1,8.570643514E-2
6.144021667E-1,-1.979916096E0,-4.868919253E-1,-4.413829446E-1
6.244211667E-1,-1.625306845E0,-2.376519889E-2,-1.271476984E0
6.344411667E-1,-1.203485250E0,4.109987915E-1,-2.187769413E0
6.444601667E-1,-7.190160751E-1,1.010652542E0,-2.755830050E0
6.544791667E-1,-1.379330009E-1,1.883126736E0,-3.002390146E0
6.644991667E-1,5.126788020E-1,2.853331804E0,-3.129768848E0
6.745181667E-1,1.234480739E0,3.911369801E0,-3.188631535E0
6.845371667E-1,1.871716380E0,4.314530849E0,-3.110516071E0
6.945571667E-1,1.899730444E0,3.230752468E0,-2.808295965E0
7.045761667E-1,1.662672997E0,2.550559282E0,-2.372282982E0
7.145952083E-1,5.551935434E-1,3.938708305E0,-6.103635430E-1
7.246152083E-1,2.198793739E-1,4.957935333E0,1.770470291E-1
7.346342083E-1,9.194031358E-1,5.385794163E0,-6.800525188E-1
7.446532083E-1,1.643287182E0,6.416124344E0,-1.563594699E0
7.546722083E-1,2.199721575E0,8.017865181E0,-2.123475790E0
7.646922083E-1,2.918983936E0,9.518218994E0,-2.681380272E0
7.747112083E-1,3.552873373E0,9.790126801E0,-3.145069122E0
7.847302083E-1,3.428041697E0,8.442212105E0,-3.267794132E0
7.947502083E-1,3.289877892E0,7.297783375E0,-3.107531071E0
8.047692083E-1,3.206353426E0,6.902491570E0,-2.651532888E0
8.147882083E-1,3.202962160E0,7.107934952E0,-2.175511360E0
8.248082083E-1,3.399038076E0,7.958428383E0,-1.846055031E0
8.348272083E-1,3.724808693E0,8.820680618E0,-1.675359964E0
8.448462083E-1,3.876721859E0,8.594466209E0,-1.483725429E0
8.548662083E-1,3.537679434E0,7.129771709E0,-1.001411200E0
8.648852083E-1,2.780129433E0,5.463077068E0,-1.707625687E-1
8.749042083E-1,1.940306664E0,4.136912823E0,6.627407670E-1
8.849242083E-1,1.392196536E0,3.329358339E0,1.099848032E0
8.949432083E-1,1.309580207E0,3.302801132E0,1.200075746E0
9.049622083E-1,1.816552877E0,3.888402462E0,1.163680196E0
9.149822083E-1,2.798519373E0,4.746176243E0,1.177570701E0
9.250012083E-1,3.676760197E0,5.843523979E0,1.279154062E0
9.350202083E-1,2.372683287E0,5.918110847E0,6.746546030E-1
9.450392083E-1,-2.931896150E-1,5.120359898E0,-2.705256045E-1
9.550592083E-1,-9.572221637E-1,4.032692909E0,-1.189648435E-1
9.650782083E-1,-2.100642920E-1,2.317891359E0,5.529752374E-1
9.750972083E-1,-4.351697862E-4,1.811700106E0,7.312799692E-1
9.851172083E-1,3.486686945E-1,2.355817556E0,5.938187838E-1
9.951362083E-1,1.224463820E0,2.698146582E0,4.626783133E-1
1.005155208E0,1.890816569E0,2.799510241E0,5.919795483E-2
1.015175208E0,1.984721422E0,2.991166115E0,-2.949523926E-1
1.025194208E0,1.855507016E0,2.991389275E0,-2.432984859E-2
1.035213208E0,1.808664083E0,2.340441942E0,6.239064932E-1
1.045233208E0,1.834739327E0,1.290459514E0,9.980932474E-1
1.055252208E0,1.655970693E0,4.168699384E-1,1.132229447E0
1.065271208E0,1.163146377E0,-1.044367552E-1,1.052399039E0
1.075291208E0,6.087678671E-1,-6.508105993E-1,3.561208248E-1
1.085310208E0,1.021907851E-1,-1.062175274E0,-7.812790275E-1
1.095329208E0,-2.078222036E-1,-1.058197141E0,-1.779174209E0
1.105349208E0,-1.204862818E-1,-5.083526969E-1,-2.377326488E0
1.115368208E0,2.701475844E-2,-1.341165006E-1,-3.149880886E0
1.125387208E0,-4.600957781E-2,3.074941039E-2,-4.213801861E0
1.135407208E0,8.217262477E-2,5.756928921E-1,-5.021565914E0
1.145426208E0,3.612710834E-1,1.371102810E0,-5.530225277E0
1.155445208E0,6.970400214E-1,1.968231440E0,-5.974420547E0
1.165465208E0,1.124263287E0,2.057735205E0,-6.324872971E0
1.175484208E0,1.738152266E0,1.370043993E0,-5.980479717E0
1.185503208E0,2.419208765E0,6.202037930E-1,-4.559041023E0
1.195523208E0,2.358583927E0,-8.935699463E-1,-2.577987432E0
1.205542208E0,1.547339678E0,-3.352002621E0,-9.173594117E-1
1.215561208E0,7.163806558E-1,-4.849584579E0,-2.458031178E-1
1.225581208E0,1.229797080E-1,-4.990705490E0,-5.028369427E-1
1.235600208E0,-5.821776986E-1,-3.827797174E0,-1.369706154E0
1.245619208E0,-1.309496641E0,-2.534752131E0,-2.338507414E0
1.255639208E0,-1.710524797E0,-1.885204315E0,-3.127322912E0
1.265658208E0,-1.888918519E0,-1.506860137E0,-3.711041212E0
1.275677208E0,-1.983806729E0,-1.052657247E0,-4.179657459E0
1.285697208E0,-1.953089714E0,-4.122110903E-1,-4.727975845E0
1.295716208E0,-1.853124499E0,3.047323525E-1,-5.252833366E0
1.305735208E0,-1.716866612E0,9.910001755E-1,-5.760492802E0
1.315755208E0,-1.601490736E0,1.383911729E0,-6.213629246E0
1.325774208E0,-1.576170087E0,1.340200186E0,-6.449376106E0
1.335793208E0,-1.561847687E0,1.171687365E0,-6.339792252E0
1.345813208E0,-1.556987762E0,8.790254593E-1,-6.070668221E0
1.355832208E0,-1.550954938E0,5.280876756E-1,-5.769977093E0
1.365851208E0,-1.539889574E0,2.468207330E-1,-5.487807751E0
1.375871208E0,-1.546112537E0,2.904552966E-2,-5.241595268E0
1.385890208E0,-1.521153212E0,-1.639460772E-2,-5.064381123E0
1.395909208E0,-1.397877574E0,1.813064963E-1,-4.897213459E0
1.405929208E0,-1.326174378E0,3.333720267E-1,-4.591351032E0
1.415948208E0,-1.262180209E0,3.495731056E-1,-4.133100510E0
1.425968208E0,-1.150180936E0,4.760599434E-1,-3.404422045E0
1.435987208E0,-1.155506492E0,7.134693265E-1,-2.641435385E0
1.446006208E0,-1.087765932E0,9.710858464E-1,-1.911845565E0
1.456026208E0,-9.042301774E-1,1.449836612E0,-1.347233057E0
1.466045208E0,-5.878645182E-1,2.138362169E0,-9.791415334E-1
1.476064208E0,-1.819577366E-1,2.774066210E0,-5.917741060E-1
1.486084208E0,2.464374602E-1,3.353517294E0,-2.535735369E-1
1.496103208E0,5.018178225E-1,3.619235516E0,-3.699118271E-2
1.506122208E0,7.022433877E-1,3.685740948E0,6.637044996E-2
1.516142208E0,7.052658200E-1,3.079888582E0,2.619240433E-2
1.526161208E0,2.353241444E-1,1.197501063E0,-1.923638582E-1
1.536180208E0,-8.865020871E-1,-2.080174685E0,-8.280273676E-1
1.546200208E0,-1.072043061E0,-2.941358566E0,-1.099116325E0
1.556219208E0,-9.974519610E-1,-3.121019125E0,-1.059578538E0
1.566238208E0,-7.353627682E-1,-3.000710249E0,-7.838158011E-1
1.576258208E0,4.558643997E-1,-1.651986122E0,-5.273978710E-1
1.586277208E0,2.242131233E0,4.768716395E-1,-3.918466568E-1
1.596296208E0,3.468504906E0,1.784908772E0,-1.613154560E-1
1.606316208E0,3.938962698E0,2.200178623E0,2.980448306E-1
1.616335208E0,3.937035799E0,2.185300589E0,7.786913514E-1
1.626354208E0,3.763789892E0,2.064987183E0,1.195024610E0
1.636374208E0,3.487369537E0,1.873061538E0,1.507150292E0
1.646393208E0,3.087196112E0,1.486847401E0,1.711787224E0
1.656412208E0,2.565006733E0,8.683141470E-1,1.845030427E0
1.666432208E0,1.420278907E0,-2.006570339E0,2.146726608E0
1.676451208E0,-1.289495677E-1,-6.121010303E0,2.603107214E0
1.686471208E0,-7.732635736E-1,-8.073977470E0,2.981994867E0
1.696490208E0,-9.449237585E-1,-8.628112793E0,3.267764091E0
1.706509208E0,-7.515284419E-1,-8.267436028E0,3.442042351E0
1.716529292E0,-3.751510978E-1,-7.446335316E0,3.512830973E0
1.726548292E0,2.906825021E-2,-6.270646572E0,3.442618847E0
1.736567292E0,2.389578372E-1,-4.864480495E0,3.199595690E0
1.746587292E0,1.924235672E-1,-3.522732019E0,2.759179592E0
1.756606292E0,8.377307095E-3,-2.429661751E0,2.085988283E0
1.766625292E0,-2.594064176E-1,-1.512463570E0,1.199924588E0
1.776645292E0,-5.511296391E-1,-7.022650838E-1,2.682730854E-1
1.786664292E0,-7.221373320E-1,4.963153228E-2,-4.605096281E-1
1.796683292E0,-7.453387976E-1,7.153853178E-1,-8.580625653E-1
1.806703292E0,-6.348865628E-1,1.319797039E0,-9.652552009E-1
1.816722292E0,-4.751363099E-1,1.818222761E0,-8.828066587E-1
1.826741292E0,-3.092977107E-1,2.116676092E0,-6.682320833E-1
1.836761292E0,-9.091158211E-2,2.290146112E0,-3.910324872E-1
1.846780292E0,1.702221334E-1,2.231172562E0,-8.955641091E-2
1.856800292E0,2.407647371E-1,1.692429900E0,2.203636318E-1
1.866819292E0,3.172952682E-2,8.645975590E-1,4.737841189E-1
1.876838292E0,-3.074243069E-1,3.237274662E-2,6.246782541E-1
1.886858292E0,-6.592191458E-1,-6.737458706E-1,6.910743117E-1
1.896877292E0,-9.493833184E-1,-1.199855566E0,7.316545248E-1
1.906896292E0,-1.171841979E0,-1.561845303E0,7.679355741E-1
1.916916292E0,-1.309176445E0,-1.742764473E0,7.864898443E-1
1.926935292E0,-1.358792782E0,-1.775655866E0,8.082191944E-1
1.936954292E0,-1.338288546E0,-1.674182773E0,8.304738998E-1
1.946974292E0,-1.277377248E0,-1.486836791E0,8.564596772E-1
1.956993292E0,-1.163949847E0,-1.308310747E0,8.327024579E-1
1.967013292E0,-1.019032121E0,-1.125933886E0,7.668437958E-1
1.977032292E0,-8.125519156E-1,-9.994340539E-1,6.746360660E-1
1.987051292E0,-4.718215764E-1,-8.916773200E-1,5.507129431E-1
1.997071292E0,-3.867600113E-2,-6.467109323E-1,4.132858515E-1
2.007090292E0,3.606815636E-1,-1.990415752E-1,2.911963761E-1
2.017109292E0,6.246746182E-1,3.659171462E-1,1.701847166E-1
2.027129292E0,7.056640387E-1,9.024978876E-1,1.026752684E-2
2.037148292E0,5.979860425E-1,1.205543041E0,-2.137179077E-1
2.047167292E0,3.100793362E-1,9.568606019E-1,-4.580532610E-1
2.057187292E0,-3.393581882E-2,2.777590156E-1,-6.855868101E-1
2.067206292E0,-2.362908125E-1,-3.624662459E-1,-8.749781251E-1
2.077225292E0,-1.430351734E-1,-7.853421569E-1,-9.945753813E-1
2.087245292E0,2.979815900E-1,-8.825987577E-1,-9.689143896E-1
2.097264292E0,8.272457123E-1,-4.742996395E-1,-8.708261847E-1
2.107284292E0,1.091000080E0,3.152600527E-1,-8.384574652E-1
2.117303292E0,9.250989556E-1,1.250148892E0,-9.110981226E-1
2.127322292E0,4.633474052E-1,2.289503813E0,-1.031745195E0
2.137342292E0,5.787498876E-2,3.146139622E0,-1.092976332E0
2.147361292E0,-9.100963920E-2,3.552443743E0,-1.007039189E0
2.157380292E0,3.035102040E-3,3.576579094E0,-7.614456415E-1
2.167400292E0,2.023671716E-1,3.398080826E0,-4.663701653E-1
2.177419292E0,3.642010689E-1,3.108261347E0,-2.291972935E-1
2.187438292E0,4.736894369E-1,2.663418531E0,-8.315202594E-2
2.197458292E0,5.737212300E-1,2.100477457E0,-1.274390705E-2
2.207477292E0,7.033670545E-1,1.422837734E0,1.420672890E-2
2.217496292E0,8.777710795E-1,5.790833235E-1,3.217534348E-2
2.227516292E0,1.038890600E0,-2.832756937E-1,3.879159689E-2
2.237535292E0,1.092817545E0,-8.553552032E-1,3.440963477E-2
2.247555292E0,1.007749677E0,-1.132683396E0,1.883745566E-2
2.257574292E0,8.436989188E-1,-1.298809290E0,1.020535082E-2
2.267593292E0,6.862402558E-1,-1.652021766E0,-1.935385168E-2
2.277613292E0,4.493153393E-1,-2.378052950E0,-8.826740831E-2
2.287632292E0,2.699933946E-3,-2.786937475E0,-2.094027400E-1
2.297651292E0,-4.114530385E-1,-2.338363171E0,-3.058927953E-1
2.307671292E0,-5.750827789E-1,-1.324521780E0,-3.192218542E-1
2.317690292E0,-5.572102666E-1,-2.291186154E-1,-2.563225329E-1
2.327709292E0,-4.603908360E-1,7.079523802E-1,-1.819260716E-1
2.337729292E0,-3.571057320E-1,1.421808958E0,-1.312035024E-1
2.347748292E0,-2.427855730E-1,1.900918603E0,-1.229913160E-1
2.357768292E0,-1.182998493E-1,2.165125132E0,-1.527915597E-1
2.367787292E0,1.992576942E-2,2.249172688E0,-1.935828030E-1
2.377806292E0,1.556063741E-1,2.211630821E0,-1.994186044E-1
2.387826292E0,2.705460489E-1,2.116266489E0,-1.589195579E-1
2.397845292E0,3.486104906E-1,1.982165933E0,-8.267831057E-2
2.407864292E0,3.958339989E-1,1.814385056E0,-4.431257956E-3
2.417884292E0,4.157224894E-1,1.610557914E0,4.652167112E-2
2.427903292E0,4.282917976E-1,1.358059406E0,8.683229983E-2
2.437922292E0,4.432291985E-1,1.043905735E0,1.297435462E-1
2.447942292E0,4.829598069E-1,6.456255317E-1,1.984864473E-1
2.457961292E0,5.813377500E-1,5.258167163E-2,2.651424706E-1
2.467980292E0,7.056020498E-1,-7.156326175E-1,3.094516695E-1
2.478000292E0,6.974802017E-1,-1.218478203E0,2.954218686E-1
2.488019292E0,5.346849561E-1,-1.358320594E0,2.192858458E-1
2.498039292E0,2.709997594E-1,-1.200374603E0,1.417303383E-1
2.508058292E0,-2.621172741E-2,-8.921011686E-1,1.049568951E-1
2.518077292E0,-2.858004272E-1,-5.514040589E-1,1.298976541E-1
2.528097292E0,-4.658079743E-1,-2.485651821E-1,1.760044843E-1
2.538116292E0,-5.430052876E-1,-3.133911639E-2,1.860238314E-1
2.548135292E0,-5.338472128E-1,1.018016860E-1,1.362892389E-1
2.558155292E0,-4.392384589E-1,1.706414670E-1,6.601721793E-2
2.568174292E0,-2.822470367E-1,1.931493878E-1,-7.479183376E-3
2.578193292E0,-1.009134650E-1,1.889823377E-1,-7.032285631E-2
2.588213292E0,6.833714247E-2,1.717703789E-1,-1.095460802E-1
2.598232292E0,1.935001165E-1,1.778828651E-1,-1.093010679E-1
2.608252292E0,2.599518895E-1,2.138695270E-1,-1.018449366E-1
2.618271292E0,2.746387124E-1,2.586087584E-1,-9.524695575E-2
2.628290292E0,2.501817048E-1,3.126863539E-1,-9.516759217E-2
2.638310292E0,2.185319066E-1,3.534830511E-1,-8.514718711E-2
2.648329292E0,1.931360960E-1,3.610595465E-1,-6.270396709E-2
2.658348292E0,1.920242161E-1,3.362911046E-1,-3.777997196E-2
2.668368292E0,2.198813707E-1,2.711128294E-1,-2.006087825E-2
2.678387292E0,2.684861720E-1,1.350221187E-1,-9.472150356E-3
2.688406292E0,3.070238531E-1,-7.751672715E-2,-8.537935792E-4
2.698426292E0,2.815858722E-1,-2.883317769E-1,1.494967099E-2
2.708445292E0,1.638224870E-1,-4.290134609E-1,3.080848604E-2
2.718464042E0,-8.449412882E-3,-4.630473256E-1,4.969961941E-2
2.728484042E0,-1.965525895E-1,-4.027876556E-1,6.701187044E-2
2.738503042E0,-3.463761806E-1,-2.917951047E-1,6.533966959E-2
2.748523042E0,-4.196797311E-1,-1.570784152E-1,5.711419135E-2
2.758542042E0,-4.031966329E-1,-3.631816804E-2,4.098502174E-2
2.768561042E0,-3.067987561E-1,6.781388819E-2,2.996455319E-2
2.778581042E0,-1.693354249E-1,1.425160915E-1,2.151540853E-2
2.788600042E0,-2.791450545E-2,1.879701763E-1,1.076033432E-2
2.798619042E0,8.555559069E-2,2.097095698E-1,-4.398644902E-3
2.808639042E0,1.564328521E-1,2.113434523E-1,-5.338639021E-3
2.818658042E0,1.798987687E-1,1.970710456E-1,7.332681678E-3
2.828677042E0,1.663829982E-1,1.711020917E-1,3.438718244E-2
2.838697042E0,1.284273565E-1,1.177885309E-1,6.365852058E-2
2.848716042E0,9.336037934E-2,4.189903289E-2,9.811920673E-2
2.858735042E0,7.703121006E-2,-6.008671969E-2,1.317437589E-1
2.868755042E0,9.392581135E-2,-1.933126301E-1,1.687046736E-1
2.878774042E0,1.406483203E-1,-3.478369415E-1,1.945551783E-1
2.888794042E0,2.167110145E-1,-5.253334641E-1,2.058643848E-1
2.898813042E0,2.802322209E-1,-6.905804873E-1,1.814874113E-1
2.908832042E0,2.712715268E-1,-8.085871935E-1,1.311191320E-1
2.918852042E0,1.611194462E-1,-8.325502872E-1,6.037918478E-2
2.928871042E0,-2.672320418E-2,-7.605524659E-1,4.262260627E-4
2.938890042E0,-2.421574742E-1,-6.312911510E-1,-3.293279558E-2
2.948910042E0,-4.335781932E-1,-5.029100180E-1,-6.145486236E-2
2.958929042E0,-5.773835778E-1,-3.640993834E-1,-1.053882316E-1
2.968948042E0,-6.741120219E-1,-1.724275649E-1,-1.480673254E-1
2.978968042E0,-7.238156796E-1,6.478204578E-2,-1.836069524E-1
2.988987042E0,-7.182165384E-1,3.632579148E-1,-2.051448375E-1
2.999007042E0,-6.763482094E-1,6.800206304E-1,-2.267446816E-1
3.009026042E0,-6.162998676E-1,9.887463450E-1,-2.528920174E-1
3.019045042E0,-5.485093594E-1,1.248119593E0,-2.776303887E-1
3.029065042E0,-4.671778679E-1,1.450489044E0,-2.692261636E-1
3.039084042E0,-3.800600171E-1,1.587731838E0,-2.293224186E-1
3.049103042E0,-2.686667442E-1,1.680179358E0,-1.506053060E-1
3.059123042E0,-1.238597482E-1,1.680418491E0,-5.340791866E-2
3.069142042E0,3.792658076E-2,1.526187539E0,1.004664879E-2
3.079161042E0,2.101324350E-1,1.196250677E0,3.914454021E-3
3.089181042E0,4.501744807E-1,5.474646091E-1,-2.554889768E-2
3.099200042E0,7.633137107E-1,-8.756059408E-1,2.037118934E-2
3.109219042E0,8.329402804E-1,-2.385210037E0,8.060681820E-2
3.119239042E0,5.753664970E-1,-3.519213676E0,1.152353659E-1
3.129258042E0,7.277714461E-2,-4.125599384E0,1.967141479E-1
3.139277042E0,-5.113859177E-1,-4.195109844E0,3.792674243E-1
3.149297042E0,-9.895774722E-1,-3.863709450E0,6.616704464E-1
3.159316042E0,-1.230670452E0,-3.298355341E0,9.565201998E-1
3.169336042E0,-1.215309501E0,-2.594419003E0,1.107550621E0
3.179355042E0,-1.030241132E0,-1.779401422E0,1.059455514E0
3.189374042E0,-7.980175614E-1,-8.849882483E-1,8.834343553E-1
3.199394042E0,-5.934864879E-1,-3.366166353E-2,7.035546303E-1
3.209413042E0,-4.348887801E-1,6.464422941E-1,5.565716624E-1
3.219432042E0,-3.185374141E-1,1.153245807E0,4.293774962E-1
3.229452042E0,-2.410686314E-1,1.454577565E0,3.137756288E-1
3.239471042E0,-1.687270701E-1,1.500896573E0,2.055303752E-1
3.249490042E0,-9.458425641E-2,1.288961649E0,8.070139587E-2
3.259510042E0,1.266071107E-2,1.018157601E0,-2.530785650E-2
3.269529042E0,2.058897614E-1,8.623346686E-1,-6.060009077E-2
3.279548042E0,4.884247780E-1,8.198497891E-1,-2.943178453E-2
3.289568042E0,8.279778361E-1,7.168563604E-1,6.165961176E-2
3.299587042E0,1.181071162E0,4.249011576E-1,1.972456574E-1
3.309607042E0,1.447103739E0,-2.055332363E-1,3.546243906E-1
3.319626042E0,1.516814947E0,-1.069881916E0,5.242770910E-1
3.329645042E0,1.340673804E0,-1.830811739E0,6.648992300E-1
3.339665042E0,1.045087457E0,-2.233230352E0,7.312516570E-1
3.349684042E0,7.886892557E-1,-2.221432924E0,7.285870910E-1
3.359703042E0,6.477712989E-1,-1.893171906E0,6.560353637E-1
